Wavelength(nm),Transmission(%)
720.0,0.00494822
721.0,0.0050757
722.0,0.005204132
723.0,0.00533379
724.0,0.005464978
725.0,0.005598033
726.0,0.005733327
727.0,0.005871268
728.0,0.006012302
729.0,0.006156919
730.0,0.006304925
731.0,0.006454443
732.0,0.006605229
733.0,0.006757161
734.0,0.006910121
735.0,0.00706399
736.0,0.007218656
737.0,0.007374009
738.0,0.007529948
739.0,0.007686377
740.0,0.007843209
741.0,0.008000368
742.0,0.008157787
743.0,0.008315409
744.0,0.00847319
745.0,0.0086311
746.0,0.008789119
747.0,0.008947243
748.0,0.00910548
749.0,0.009263851
750.0,0.009422393
751.0,0.009581156
752.0,0.0097402
753.0,0.009899602
754.0,0.010059
755.0,0.01022
756.0,0.010381
757.0,0.010542
758.0,0.010703
759.0,0.010863
760.0,0.011024
761.0,0.011186
762.0,0.011348
763.0,0.011512
764.0,0.011678
765.0,0.011846
766.0,0.012016
767.0,0.012189
768.0,0.012366
769.0,0.012547
770.0,0.012731
771.0,0.012921
772.0,0.013115
773.0,0.013315
774.0,0.013521
775.0,0.013733
776.0,0.013951
777.0,0.014175
778.0,0.014404
779.0,0.014638
780.0,0.014878
781.0,0.015123
782.0,0.015374
783.0,0.015629
784.0,0.01589
785.0,0.016155
786.0,0.016425
787.0,0.016699
788.0,0.016977
789.0,0.017258
790.0,0.017543
791.0,0.01783
792.0,0.01812
793.0,0.018412
794.0,0.018706
795.0,0.019001
796.0,0.019296
797.0,0.019592
798.0,0.019887
799.0,0.020182
800.0,0.020475
801.0,0.020768
802.0,0.021058
803.0,0.021346
804.0,0.021631
805.0,0.021913
806.0,0.02219
807.0,0.022459
808.0,0.02272
809.0,0.022974
810.0,0.023221
811.0,0.023463
812.0,0.0237
813.0,0.023934
814.0,0.024165
815.0,0.024394
816.0,0.024623
817.0,0.024852
818.0,0.025082
819.0,0.025314
820.0,0.025551
821.0,0.025792
822.0,0.026039
823.0,0.026294
824.0,0.026557
825.0,0.026829
826.0,0.027114
827.0,0.027411
828.0,0.027726
829.0,0.028061
830.0,0.028416
831.0,0.028789
832.0,0.029183
833.0,0.029596
834.0,0.030029
835.0,0.030483
836.0,0.030956
837.0,0.03145
838.0,0.031965
839.0,0.032501
840.0,0.033059
841.0,0.033639
842.0,0.034241
843.0,0.034866
844.0,0.035514
845.0,0.036186
846.0,0.036883
847.0,0.037604
848.0,0.038351
849.0,0.039124
850.0,0.039924
851.0,0.040751
852.0,0.041606
853.0,0.04249
854.0,0.043404
855.0,0.044348
856.0,0.045322
857.0,0.046328
858.0,0.047366
859.0,0.048437
860.0,0.049542
861.0,0.05068
862.0,0.051852
863.0,0.053059
864.0,0.054301
865.0,0.055578
866.0,0.05689
867.0,0.058237
868.0,0.059619
869.0,0.061035
870.0,0.062484
871.0,0.063966
872.0,0.065478
873.0,0.06702
874.0,0.06859
875.0,0.070184
876.0,0.071801
877.0,0.073437
878.0,0.075089
879.0,0.076752
880.0,0.078422
881.0,0.080093
882.0,0.081761
883.0,0.083418
884.0,0.085058
885.0,0.086674
886.0,0.088261
887.0,0.089833
888.0,0.091394
889.0,0.092939
890.0,0.094466
891.0,0.09597
892.0,0.097448
893.0,0.098896
894.0,0.10031
895.0,0.101687
896.0,0.103024
897.0,0.104315
898.0,0.105558
899.0,0.10675
900.0,0.107888
901.0,0.108968
902.0,0.109989
903.0,0.110947
904.0,0.111841
905.0,0.112669
906.0,0.113429
907.0,0.114122
908.0,0.114745
909.0,0.115299
910.0,0.115785
911.0,0.116201
912.0,0.11655
913.0,0.116833
914.0,0.11705
915.0,0.117205
916.0,0.117298
917.0,0.117332
918.0,0.117311
919.0,0.117235
920.0,0.11711
921.0,0.116937
922.0,0.116719
923.0,0.116461
924.0,0.116165
925.0,0.115835
926.0,0.115474
927.0,0.115085
928.0,0.114672
929.0,0.114239
930.0,0.113788
931.0,0.113322
932.0,0.112845
933.0,0.11236
934.0,0.11187
935.0,0.111377
936.0,0.110884
937.0,0.110393
938.0,0.109908
939.0,0.10943
940.0,0.108962
941.0,0.108506
942.0,0.108064
943.0,0.107638
944.0,0.10723
945.0,0.106841
946.0,0.106474
947.0,0.10613
948.0,0.105811
949.0,0.105518
950.0,0.105252
951.0,0.105016
952.0,0.10481
953.0,0.104635
954.0,0.104494
955.0,0.104378
956.0,0.104286
957.0,0.104218
958.0,0.104174
959.0,0.104157
960.0,0.104165
961.0,0.1042
962.0,0.104263
963.0,0.104353
964.0,0.104473
965.0,0.104621
966.0,0.104799
967.0,0.105008
968.0,0.105247
969.0,0.105518
970.0,0.105821
971.0,0.106157
972.0,0.106526
973.0,0.106928
974.0,0.107365
975.0,0.107837
976.0,0.108345
977.0,0.108889
978.0,0.109469
979.0,0.110087
980.0,0.110742
981.0,0.111437
982.0,0.11217
983.0,0.112943
984.0,0.113757
985.0,0.114611
986.0,0.115507
987.0,0.116446
988.0,0.117427
989.0,0.118452
990.0,0.119521
991.0,0.120635
992.0,0.121794
993.0,0.122999
994.0,0.124251
995.0,0.12555
996.0,0.126897
997.0,0.128291
998.0,0.129735
999.0,0.131228
1000.0,0.13277
1001.0,0.134362
1002.0,0.136004
1003.0,0.137697
1004.0,0.139441
1005.0,0.141235
1006.0,0.143081
1007.0,0.144977
1008.0,0.146924
1009.0,0.148921
1010.0,0.150968
1011.0,0.153065
1012.0,0.155211
1013.0,0.157405
1014.0,0.159646
1015.0,0.161934
1016.0,0.164266
1017.0,0.166642
1018.0,0.169059
1019.0,0.171517
1020.0,0.174012
1021.0,0.176542
1022.0,0.179106
1023.0,0.181699
1024.0,0.184319
1025.0,0.186963
1026.0,0.189627
1027.0,0.192307
1028.0,0.194999
1029.0,0.197698
1030.0,0.200401
1031.0,0.203101
1032.0,0.205795
1033.0,0.208476
1034.0,0.211142
1035.0,0.21379
1036.0,0.216416
1037.0,0.219014
1038.0,0.221581
1039.0,0.224111
1040.0,0.2266
1041.0,0.229042
1042.0,0.231432
1043.0,0.233766
1044.0,0.236038
1045.0,0.238244
1046.0,0.24038
1047.0,0.24244
1048.0,0.244421
1049.0,0.246317
1050.0,0.248126
1051.0,0.249844
1052.0,0.251466
1053.0,0.252991
1054.0,0.254415
1055.0,0.255735
1056.0,0.25695
1057.0,0.258057
1058.0,0.259056
1059.0,0.259944
1060.0,0.260722
1061.0,0.26139
1062.0,0.261946
1063.0,0.262391
1064.0,0.262727
1065.0,0.262955
1066.0,0.263075
1067.0,0.263089
1068.0,0.263
1069.0,0.26281
1070.0,0.262522
1071.0,0.262138
1072.0,0.261662
1073.0,0.261096
1074.0,0.260444
1075.0,0.25971
1076.0,0.258898
1077.0,0.25801
1078.0,0.257052
1079.0,0.256027
1080.0,0.254939
1081.0,0.253792
1082.0,0.252589
1083.0,0.251336
1084.0,0.250036
1085.0,0.248693
1086.0,0.24731
1087.0,0.245892
1088.0,0.244442
1089.0,0.242963
1090.0,0.24146
1091.0,0.239935
1092.0,0.238392
1093.0,0.236835
1094.0,0.235265
1095.0,0.233686
1096.0,0.232101
1097.0,0.230512
1098.0,0.228922
1099.0,0.227333
1100.0,0.225748
1101.0,0.224169
1102.0,0.222597
1103.0,0.221036
1104.0,0.219486
1105.0,0.217949
1106.0,0.216427
1107.0,0.214922
1108.0,0.213434
1109.0,0.211966
1110.0,0.210518
1111.0,0.209091
1112.0,0.207687
1113.0,0.206307
1114.0,0.204952
1115.0,0.203622
1116.0,0.202318
1117.0,0.201041
1118.0,0.199792
1119.0,0.198571
1120.0,0.19738
1121.0,0.196217
1122.0,0.195085
1123.0,0.193983
1124.0,0.192912
1125.0,0.191873
1126.0,0.190865
1127.0,0.189889
1128.0,0.188944
1129.0,0.188028
1130.0,0.187143
1131.0,0.186287
1132.0,0.185462
1133.0,0.184667
1134.0,0.183904
1135.0,0.183171
1136.0,0.182469
1137.0,0.181799
1138.0,0.18116
1139.0,0.180552
1140.0,0.179976
1141.0,0.179432
1142.0,0.178919
1143.0,0.178438
1144.0,0.177989
1145.0,0.177572
1146.0,0.177187
1147.0,0.176834
1148.0,0.176513
1149.0,0.176224
1150.0,0.175968
1151.0,0.175743
1152.0,0.175551
1153.0,0.175391
1154.0,0.175263
1155.0,0.175168
1156.0,0.175105
1157.0,0.175075
1158.0,0.175077
1159.0,0.175111
1160.0,0.175179
1161.0,0.175279
1162.0,0.175412
1163.0,0.175578
1164.0,0.175778
1165.0,0.17601
1166.0,0.176276
1167.0,0.176575
1168.0,0.176908
1169.0,0.177274
1170.0,0.177675
1171.0,0.178109
1172.0,0.178578
1173.0,0.179081
1174.0,0.179619
1175.0,0.180192
1176.0,0.180799
1177.0,0.181442
1178.0,0.182121
1179.0,0.182835
1180.0,0.183585
1181.0,0.184372
1182.0,0.185195
1183.0,0.186055
1184.0,0.186952
1185.0,0.187886
1186.0,0.188858
1187.0,0.189868
1188.0,0.190917
1189.0,0.192004
1190.0,0.19313
1191.0,0.194296
1192.0,0.195501
1193.0,0.196746
1194.0,0.198032
1195.0,0.199359
1196.0,0.200727
1197.0,0.202136
1198.0,0.203587
1199.0,0.205081
1200.0,0.206617
1201.0,0.208196
1202.0,0.209819
1203.0,0.211485
1204.0,0.213196
1205.0,0.214951
1206.0,0.216751
1207.0,0.218596
1208.0,0.220487
1209.0,0.222424
1210.0,0.224408
1211.0,0.226437
1212.0,0.228514
1213.0,0.230638
1214.0,0.232809
1215.0,0.235028
1216.0,0.237295
1217.0,0.239609
1218.0,0.241973
1219.0,0.244384
1220.0,0.246844
1221.0,0.249352
1222.0,0.25191
1223.0,0.254515
1224.0,0.257169
1225.0,0.259872
1226.0,0.262623
1227.0,0.265422
1228.0,0.268268
1229.0,0.271163
1230.0,0.274104
1231.0,0.277092
1232.0,0.280126
1233.0,0.283206
1234.0,0.286331
1235.0,0.289499
1236.0,0.292712
1237.0,0.295966
1238.0,0.299262
1239.0,0.302599
1240.0,0.305975
1241.0,0.309389
1242.0,0.312843
1243.0,0.316334
1244.0,0.319862
1245.0,0.323424
1246.0,0.327019
1247.0,0.330646
1248.0,0.334301
1249.0,0.337985
1250.0,0.341693
1251.0,0.345424
1252.0,0.349177
1253.0,0.352947
1254.0,0.356732
1255.0,0.360531
1256.0,0.364339
1257.0,0.368154
1258.0,0.371973
1259.0,0.375792
1260.0,0.379608
1261.0,0.383417
1262.0,0.387217
1263.0,0.391003
1264.0,0.394771
1265.0,0.398518
1266.0,0.402239
1267.0,0.40593
1268.0,0.409588
1269.0,0.413208
1270.0,0.416785
1271.0,0.420316
1272.0,0.423796
1273.0,0.42722
1274.0,0.430585
1275.0,0.433886
1276.0,0.437119
1277.0,0.440279
1278.0,0.443361
1279.0,0.446363
1280.0,0.44928
1281.0,0.452107
1282.0,0.454841
1283.0,0.457479
1284.0,0.460016
1285.0,0.462448
1286.0,0.464774
1287.0,0.466989
1288.0,0.469091
1289.0,0.471076
1290.0,0.472943
1291.0,0.474689
1292.0,0.476312
1293.0,0.477811
1294.0,0.479183
1295.0,0.480427
1296.0,0.481543
1297.0,0.48253
1298.0,0.483386
1299.0,0.484112
1300.0,0.484709
1301.0,0.485175
1302.0,0.485512
1303.0,0.485721
1304.0,0.485802
1305.0,0.485756
1306.0,0.485587
1307.0,0.485294
1308.0,0.48488
1309.0,0.484347
1310.0,0.483698
1311.0,0.482934
1312.0,0.48206
1313.0,0.481076
1314.0,0.479988
1315.0,0.478797
1316.0,0.477506
1317.0,0.47612
1318.0,0.474642
1319.0,0.473074
1320.0,0.471422
1321.0,0.469687
1322.0,0.467874
1323.0,0.465987
1324.0,0.464029
1325.0,0.462004
1326.0,0.459915
1327.0,0.457767
1328.0,0.455562
1329.0,0.453305
1330.0,0.450999
1331.0,0.448647
1332.0,0.446253
1333.0,0.44382
1334.0,0.441352
1335.0,0.438852
1336.0,0.436323
1337.0,0.433767
1338.0,0.431189
1339.0,0.42859
1340.0,0.425975
1341.0,0.423344
1342.0,0.420702
1343.0,0.41805
1344.0,0.415391
1345.0,0.412727
1346.0,0.410061
1347.0,0.407395
1348.0,0.40473
1349.0,0.402069
1350.0,0.399413
1351.0,0.396765
1352.0,0.394125
1353.0,0.391497
1354.0,0.38888
1355.0,0.386277
1356.0,0.383688
1357.0,0.381116
1358.0,0.378561
1359.0,0.376024
1360.0,0.373507
1361.0,0.371011
1362.0,0.368535
1363.0,0.366082
1364.0,0.363652
1365.0,0.361246
1366.0,0.358864
1367.0,0.356508
1368.0,0.354176
1369.0,0.351871
1370.0,0.349593
1371.0,0.347342
1372.0,0.345118
1373.0,0.342921
1374.0,0.340753
1375.0,0.338613
1376.0,0.336502
1377.0,0.33442
1378.0,0.332366
1379.0,0.330342
1380.0,0.328346
1381.0,0.32638
1382.0,0.324444
1383.0,0.322537
1384.0,0.320659
1385.0,0.318811
1386.0,0.316992
1387.0,0.315202
1388.0,0.313442
1389.0,0.311711
1390.0,0.310009
1391.0,0.308336
1392.0,0.306693
1393.0,0.305078
1394.0,0.303492
1395.0,0.301934
1396.0,0.300405
1397.0,0.298905
1398.0,0.297432
1399.0,0.295988
1400.0,0.294571
1401.0,0.293182
1402.0,0.29182
1403.0,0.290486
1404.0,0.289179
1405.0,0.287899
1406.0,0.286646
1407.0,0.285419
1408.0,0.284218
1409.0,0.283044
1410.0,0.281895
1411.0,0.280773
1412.0,0.279676
1413.0,0.278604
1414.0,0.277558
1415.0,0.276536
1416.0,0.27554
1417.0,0.274568
1418.0,0.273621
1419.0,0.272697
1420.0,0.271798
1421.0,0.270923
1422.0,0.270072
1423.0,0.269244
1424.0,0.268439
1425.0,0.267658
1426.0,0.266899
1427.0,0.266164
1428.0,0.265451
1429.0,0.264761
1430.0,0.264094
1431.0,0.263448
1432.0,0.262825
1433.0,0.262223
1434.0,0.261644
1435.0,0.261086
1436.0,0.26055
1437.0,0.260035
1438.0,0.259542
1439.0,0.259069
1440.0,0.258618
1441.0,0.258188
1442.0,0.257778
1443.0,0.25739
1444.0,0.257022
1445.0,0.256675
1446.0,0.256348
1447.0,0.256041
1448.0,0.255755
1449.0,0.255489
1450.0,0.255244
1451.0,0.255018
1452.0,0.254812
1453.0,0.254627
1454.0,0.254461
1455.0,0.254315
1456.0,0.254189
1457.0,0.254083
1458.0,0.253997
1459.0,0.25393
1460.0,0.253883
1461.0,0.253856
1462.0,0.253848
1463.0,0.25386
1464.0,0.253892
1465.0,0.253943
1466.0,0.254014
1467.0,0.254104
1468.0,0.254214
1469.0,0.254344
1470.0,0.254493
1471.0,0.254662
1472.0,0.254851
1473.0,0.25506
1474.0,0.255288
1475.0,0.255536
1476.0,0.255805
1477.0,0.256093
1478.0,0.256401
1479.0,0.256729
1480.0,0.257077
1481.0,0.257445
1482.0,0.257834
1483.0,0.258243
1484.0,0.258672
1485.0,0.259122
1486.0,0.259593
1487.0,0.260084
1488.0,0.260596
1489.0,0.261129
1490.0,0.261683
1491.0,0.262259
1492.0,0.262855
1493.0,0.263473
1494.0,0.264113
1495.0,0.264774
1496.0,0.265457
1497.0,0.266163
1498.0,0.26689
1499.0,0.26764
1500.0,0.268412
1501.0,0.269207
1502.0,0.270025
1503.0,0.270866
1504.0,0.27173
1505.0,0.272617
1506.0,0.273529
1507.0,0.274464
1508.0,0.275423
1509.0,0.276406
1510.0,0.277414
1511.0,0.278447
1512.0,0.279505
1513.0,0.280588
1514.0,0.281697
1515.0,0.282831
1516.0,0.283992
1517.0,0.285178
1518.0,0.286391
1519.0,0.287632
1520.0,0.288899
1521.0,0.290194
1522.0,0.291516
1523.0,0.292867
1524.0,0.294246
1525.0,0.295653
1526.0,0.29709
1527.0,0.298556
1528.0,0.300052
1529.0,0.301578
1530.0,0.303134
1531.0,0.304721
1532.0,0.306339
1533.0,0.307989
1534.0,0.309671
1535.0,0.311385
1536.0,0.313131
1537.0,0.314911
1538.0,0.316724
1539.0,0.318571
1540.0,0.320452
1541.0,0.322368
1542.0,0.32432
1543.0,0.326306
1544.0,0.328329
1545.0,0.330389
1546.0,0.332485
1547.0,0.334619
1548.0,0.33679
1549.0,0.339
1550.0,0.341249
1551.0,0.343537
1552.0,0.345864
1553.0,0.348232
1554.0,0.35064
1555.0,0.353089
1556.0,0.35558
1557.0,0.358112
1558.0,0.360687
1559.0,0.363305
1560.0,0.365966
1561.0,0.368671
1562.0,0.37142
1563.0,0.374214
1564.0,0.377054
1565.0,0.379939
1566.0,0.38287
1567.0,0.385848
1568.0,0.388873
1569.0,0.391946
1570.0,0.395067
1571.0,0.398237
1572.0,0.401456
1573.0,0.404725
1574.0,0.408043
1575.0,0.411412
1576.0,0.414832
1577.0,0.418304
1578.0,0.421827
1579.0,0.425403
1580.0,0.429031
1581.0,0.432713
1582.0,0.436448
1583.0,0.440236
1584.0,0.44408
1585.0,0.447977
1586.0,0.45193
1587.0,0.455938
1588.0,0.460002
1589.0,0.464121
1590.0,0.468297
1591.0,0.472529
1592.0,0.476817
1593.0,0.481162
1594.0,0.485564
1595.0,0.490023
1596.0,0.494539
1597.0,0.499112
1598.0,0.503743
1599.0,0.50843
1600.0,0.513174
1601.0,0.517975
1602.0,0.522833
1603.0,0.527747
1604.0,0.532717
1605.0,0.537743
1606.0,0.542824
1607.0,0.547961
1608.0,0.553152
1609.0,0.558397
1610.0,0.563695
1611.0,0.569046
1612.0,0.574448
1613.0,0.579901
1614.0,0.585405
1615.0,0.590957
1616.0,0.596557
1617.0,0.602203
1618.0,0.607895
1619.0,0.61363
1620.0,0.619408
1621.0,0.625227
1622.0,0.631084
1623.0,0.636979
1624.0,0.642909
1625.0,0.648873
1626.0,0.654867
1627.0,0.660891
1628.0,0.666941
1629.0,0.673015
1630.0,0.67911
1631.0,0.685224
1632.0,0.691354
1633.0,0.697496
1634.0,0.703649
1635.0,0.709807
1636.0,0.715969
1637.0,0.72213
1638.0,0.728287
1639.0,0.734436
1640.0,0.740573
1641.0,0.746695
1642.0,0.752797
1643.0,0.758875
1644.0,0.764925
1645.0,0.770941
1646.0,0.776921
1647.0,0.782858
1648.0,0.788749
1649.0,0.794588
1650.0,0.800371
1651.0,0.806093
1652.0,0.811748
1653.0,0.817331
1654.0,0.822838
1655.0,0.828263
1656.0,0.833601
1657.0,0.838847
1658.0,0.843996
1659.0,0.849042
1660.0,0.85398
1661.0,0.858806
1662.0,0.863513
1663.0,0.868097
1664.0,0.872553
1665.0,0.876876
1666.0,0.881061
1667.0,0.885104
1668.0,0.888999
1669.0,0.892743
1670.0,0.896331
1671.0,0.899759
1672.0,0.903023
1673.0,0.90612
1674.0,0.909045
1675.0,0.911795
1676.0,0.914367
1677.0,0.916758
1678.0,0.918966
1679.0,0.920988
1680.0,0.922822
1681.0,0.924465
1682.0,0.925917
1683.0,0.927175
1684.0,0.928239
1685.0,0.929108
1686.0,0.929781
1687.0,0.930258
1688.0,0.930538
1689.0,0.930623
1690.0,0.930513
1691.0,0.930209
1692.0,0.929711
1693.0,0.929021
1694.0,0.928141
1695.0,0.927073
1696.0,0.925819
1697.0,0.92438
1698.0,0.922761
1699.0,0.920963
1700.0,0.91899
1701.0,0.916845
1702.0,0.914532
1703.0,0.912053
1704.0,0.909414
1705.0,0.906617
1706.0,0.903668
1707.0,0.900569
1708.0,0.897326
1709.0,0.893944
1710.0,0.890426
1711.0,0.886777
1712.0,0.883002
1713.0,0.879106
1714.0,0.875094
1715.0,0.870969
1716.0,0.866739
1717.0,0.862406
1718.0,0.857976
1719.0,0.853454
1720.0,0.848845
1721.0,0.844154
1722.0,0.839385
1723.0,0.834543
1724.0,0.829632
1725.0,0.824658
1726.0,0.819625
1727.0,0.814538
1728.0,0.8094
1729.0,0.804216
1730.0,0.798991
1731.0,0.793728
1732.0,0.788432
1733.0,0.783106
1734.0,0.777754
1735.0,0.772381
1736.0,0.766989
1737.0,0.761582
1738.0,0.756163
1739.0,0.750737
1740.0,0.745305
1741.0,0.739871
1742.0,0.734439
1743.0,0.72901
1744.0,0.723588
1745.0,0.718174
1746.0,0.712773
1747.0,0.707385
1748.0,0.702014
1749.0,0.696661
1750.0,0.691329
1751.0,0.686019
1752.0,0.680734
1753.0,0.675475
1754.0,0.670243
1755.0,0.665042
1756.0,0.659871
1757.0,0.654732
1758.0,0.649628
1759.0,0.644558
1760.0,0.639525
1761.0,0.634529
1762.0,0.629571
1763.0,0.624652
1764.0,0.619773
1765.0,0.614935
1766.0,0.610139
1767.0,0.605385
1768.0,0.600674
1769.0,0.596007
1770.0,0.591383
1771.0,0.586804
1772.0,0.58227
1773.0,0.577781
1774.0,0.573337
1775.0,0.56894
1776.0,0.564588
1777.0,0.560282
1778.0,0.556023
1779.0,0.55181
1780.0,0.547644
1781.0,0.543524
1782.0,0.539451
1783.0,0.535424
1784.0,0.531444
1785.0,0.52751
1786.0,0.523622
1787.0,0.519781
1788.0,0.515985
1789.0,0.512236
1790.0,0.508532
1791.0,0.504873
1792.0,0.50126
1793.0,0.497692
1794.0,0.494168
1795.0,0.490689
1796.0,0.487255
1797.0,0.483864
1798.0,0.480516
1799.0,0.477213
1800.0,0.473952
1801.0,0.470733
1802.0,0.467558
1803.0,0.464424
1804.0,0.461331
1805.0,0.45828
1806.0,0.45527
1807.0,0.452301
1808.0,0.449371
1809.0,0.446482
1810.0,0.443632
1811.0,0.440821
1812.0,0.438048
1813.0,0.435315
1814.0,0.432618
1815.0,0.42996
1816.0,0.427339
1817.0,0.424754
1818.0,0.422206
1819.0,0.419694
1820.0,0.417217
1821.0,0.414776
1822.0,0.412369
1823.0,0.409998
1824.0,0.40766
1825.0,0.405356
1826.0,0.403085
1827.0,0.400848
1828.0,0.398643
1829.0,0.39647
1830.0,0.394329
1831.0,0.39222
1832.0,0.390142
1833.0,0.388095
1834.0,0.386078
1835.0,0.384092
1836.0,0.382135
1837.0,0.380208
1838.0,0.37831
1839.0,0.376441
1840.0,0.374601
1841.0,0.372788
1842.0,0.371004
1843.0,0.369246
1844.0,0.367517
1845.0,0.365814
1846.0,0.364137
1847.0,0.362487
1848.0,0.360863
1849.0,0.359265
1850.0,0.357692
1851.0,0.356144
1852.0,0.354621
1853.0,0.353123
1854.0,0.351646
1855.0,0.350186
1856.0,0.34875
1857.0,0.347338
1858.0,0.345948
1859.0,0.344582
1860.0,0.343238
1861.0,0.341917
1862.0,0.340618
1863.0,0.339341
1864.0,0.338085
1865.0,0.336851
1866.0,0.335638
1867.0,0.334447
1868.0,0.333276
1869.0,0.332125
1870.0,0.330995
1871.0,0.329886
1872.0,0.328796
1873.0,0.327726
1874.0,0.326675
1875.0,0.325644
1876.0,0.324632
1877.0,0.323639
1878.0,0.322664
1879.0,0.321708
1880.0,0.320771
1881.0,0.319852
1882.0,0.318951
1883.0,0.318068
1884.0,0.317202
1885.0,0.316354
1886.0,0.315524
1887.0,0.31471
1888.0,0.313914
1889.0,0.313135
1890.0,0.312372
1891.0,0.311626
1892.0,0.310897
1893.0,0.310184
1894.0,0.309487
1895.0,0.308806
1896.0,0.308141
1897.0,0.307492
1898.0,0.306858
1899.0,0.30624
1900.0,0.305638
1901.0,0.30505
1902.0,0.304478
1903.0,0.303921
1904.0,0.303379
1905.0,0.302852
1906.0,0.30234
1907.0,0.301842
1908.0,0.301359
1909.0,0.30089
1910.0,0.300435
1911.0,0.299995
