Wavelength(nm),Transmission(%)
720.0,0.932785
721.0,0.932792
722.0,0.932799
723.0,0.932807
724.0,0.932814
725.0,0.932821
726.0,0.932828
727.0,0.932835
728.0,0.932842
729.0,0.932849
730.0,0.932856
731.0,0.932863
732.0,0.93287
733.0,0.932877
734.0,0.932883
735.0,0.93289
736.0,0.932897
737.0,0.932904
738.0,0.932911
739.0,0.932917
740.0,0.932924
741.0,0.932931
742.0,0.932937
743.0,0.932944
744.0,0.932951
745.0,0.932957
746.0,0.932964
747.0,0.93297
748.0,0.932977
749.0,0.932983
750.0,0.93299
751.0,0.932996
752.0,0.933003
753.0,0.933009
754.0,0.933015
755.0,0.933022
756.0,0.933028
757.0,0.933034
758.0,0.93304
759.0,0.933047
760.0,0.933053
761.0,0.933059
762.0,0.933065
763.0,0.933071
764.0,0.933078
765.0,0.933084
766.0,0.93309
767.0,0.933096
768.0,0.933102
769.0,0.933108
770.0,0.933114
771.0,0.93312
772.0,0.933126
773.0,0.933132
774.0,0.933138
775.0,0.933143
776.0,0.933149
777.0,0.933155
778.0,0.933161
779.0,0.933167
780.0,0.933172
781.0,0.933178
782.0,0.933184
783.0,0.93319
784.0,0.933195
785.0,0.933201
786.0,0.933207
787.0,0.933212
788.0,0.933218
789.0,0.933224
790.0,0.933229
791.0,0.933235
792.0,0.93324
793.0,0.933246
794.0,0.933251
795.0,0.933257
796.0,0.933262
797.0,0.933268
798.0,0.933273
799.0,0.933278
800.0,0.933284
801.0,0.933289
802.0,0.933294
803.0,0.9333
804.0,0.933305
805.0,0.93331
806.0,0.933316
807.0,0.933321
808.0,0.933326
809.0,0.933331
810.0,0.933336
811.0,0.933342
812.0,0.933347
813.0,0.933352
814.0,0.933357
815.0,0.933362
816.0,0.933367
817.0,0.933372
818.0,0.933377
819.0,0.933382
820.0,0.933387
821.0,0.933392
822.0,0.933397
823.0,0.933402
824.0,0.933407
825.0,0.933412
826.0,0.933417
827.0,0.933422
828.0,0.933427
829.0,0.933431
830.0,0.933436
831.0,0.933441
832.0,0.933446
833.0,0.933451
834.0,0.933455
835.0,0.93346
836.0,0.933465
837.0,0.93347
838.0,0.933474
839.0,0.933479
840.0,0.933484
841.0,0.933488
842.0,0.933493
843.0,0.933498
844.0,0.933502
845.0,0.933507
846.0,0.933511
847.0,0.933516
848.0,0.933521
849.0,0.933525
850.0,0.93353
851.0,0.933534
852.0,0.933539
853.0,0.933543
854.0,0.933548
855.0,0.933552
856.0,0.933556
857.0,0.933561
858.0,0.933565
859.0,0.93357
860.0,0.933574
861.0,0.933578
862.0,0.933583
863.0,0.933587
864.0,0.933591
865.0,0.933596
866.0,0.9336
867.0,0.933604
868.0,0.933608
869.0,0.933613
870.0,0.933617
871.0,0.933621
872.0,0.933625
873.0,0.933629
874.0,0.933634
875.0,0.933638
876.0,0.933642
877.0,0.933646
878.0,0.93365
879.0,0.933654
880.0,0.933658
881.0,0.933662
882.0,0.933666
883.0,0.93367
884.0,0.933675
885.0,0.933679
886.0,0.933683
887.0,0.933687
888.0,0.933691
889.0,0.933695
890.0,0.933698
891.0,0.933702
892.0,0.933706
893.0,0.93371
894.0,0.933714
895.0,0.933718
896.0,0.933722
897.0,0.933726
898.0,0.93373
899.0,0.933733
900.0,0.933737
901.0,0.933741
902.0,0.933745
903.0,0.933749
904.0,0.933753
905.0,0.933756
906.0,0.93376
907.0,0.933764
908.0,0.933768
909.0,0.933771
910.0,0.933775
911.0,0.933779
912.0,0.933782
913.0,0.933786
914.0,0.93379
915.0,0.933793
916.0,0.933797
917.0,0.933801
918.0,0.933804
919.0,0.933808
920.0,0.933811
921.0,0.933815
922.0,0.933819
923.0,0.933822
924.0,0.933826
925.0,0.933829
926.0,0.933833
927.0,0.933836
928.0,0.93384
929.0,0.933843
930.0,0.933847
931.0,0.93385
932.0,0.933854
933.0,0.933857
934.0,0.933861
935.0,0.933864
936.0,0.933867
937.0,0.933871
938.0,0.933874
939.0,0.933878
940.0,0.933881
941.0,0.933884
942.0,0.933888
943.0,0.933891
944.0,0.933894
945.0,0.933898
946.0,0.933901
947.0,0.933904
948.0,0.933908
949.0,0.933911
950.0,0.933914
951.0,0.933918
952.0,0.933921
953.0,0.933924
954.0,0.933927
955.0,0.93393
956.0,0.933934
957.0,0.933937
958.0,0.93394
959.0,0.933943
960.0,0.933946
961.0,0.93395
962.0,0.933953
963.0,0.933956
964.0,0.933959
965.0,0.933962
966.0,0.933965
967.0,0.933968
968.0,0.933972
969.0,0.933975
970.0,0.933978
971.0,0.933981
972.0,0.933984
973.0,0.933987
974.0,0.93399
975.0,0.933993
976.0,0.933996
977.0,0.933999
978.0,0.934002
979.0,0.934005
980.0,0.934008
981.0,0.934011
982.0,0.934014
983.0,0.934017
984.0,0.93402
985.0,0.934023
986.0,0.934026
987.0,0.934029
988.0,0.934032
989.0,0.934035
990.0,0.934038
991.0,0.93404
992.0,0.934043
993.0,0.934046
994.0,0.934049
995.0,0.934052
996.0,0.934055
997.0,0.934058
998.0,0.93406
999.0,0.934063
1000.0,0.934066
1001.0,0.934069
1002.0,0.934072
1003.0,0.934075
1004.0,0.934077
1005.0,0.93408
1006.0,0.934083
1007.0,0.934086
1008.0,0.934088
1009.0,0.934091
1010.0,0.934094
1011.0,0.934097
1012.0,0.934099
1013.0,0.934102
1014.0,0.934105
1015.0,0.934108
1016.0,0.93411
1017.0,0.934113
1018.0,0.934116
1019.0,0.934118
1020.0,0.934121
1021.0,0.934124
1022.0,0.934126
1023.0,0.934129
1024.0,0.934132
1025.0,0.934134
1026.0,0.934137
1027.0,0.934139
1028.0,0.934142
1029.0,0.934145
1030.0,0.934147
1031.0,0.93415
1032.0,0.934152
1033.0,0.934155
1034.0,0.934157
1035.0,0.93416
1036.0,0.934163
1037.0,0.934165
1038.0,0.934168
1039.0,0.93417
1040.0,0.934173
1041.0,0.934175
1042.0,0.934178
1043.0,0.93418
1044.0,0.934183
1045.0,0.934185
1046.0,0.934188
1047.0,0.93419
1048.0,0.934193
1049.0,0.934195
1050.0,0.934197
1051.0,0.9342
1052.0,0.934202
1053.0,0.934205
1054.0,0.934207
1055.0,0.93421
1056.0,0.934212
1057.0,0.934214
1058.0,0.934217
1059.0,0.934219
1060.0,0.934222
1061.0,0.934224
1062.0,0.934226
1063.0,0.934229
1064.0,0.934231
1065.0,0.934233
1066.0,0.934236
1067.0,0.934238
1068.0,0.93424
1069.0,0.934243
1070.0,0.934245
1071.0,0.934247
1072.0,0.93425
1073.0,0.934252
1074.0,0.934254
1075.0,0.934257
1076.0,0.934259
1077.0,0.934261
1078.0,0.934263
1079.0,0.934266
1080.0,0.934268
1081.0,0.93427
1082.0,0.934272
1083.0,0.934275
1084.0,0.934277
1085.0,0.934279
1086.0,0.934281
1087.0,0.934283
1088.0,0.934286
1089.0,0.934288
1090.0,0.93429
1091.0,0.934292
1092.0,0.934294
1093.0,0.934297
1094.0,0.934299
1095.0,0.934301
1096.0,0.934303
1097.0,0.934305
1098.0,0.934307
1099.0,0.93431
1100.0,0.934312
1101.0,0.934314
1102.0,0.934316
1103.0,0.934318
1104.0,0.93432
1105.0,0.934322
1106.0,0.934324
1107.0,0.934327
1108.0,0.934329
1109.0,0.934331
1110.0,0.934333
1111.0,0.934335
1112.0,0.934337
1113.0,0.934339
1114.0,0.934341
1115.0,0.934343
1116.0,0.934345
1117.0,0.934347
1118.0,0.934349
1119.0,0.934351
1120.0,0.934353
1121.0,0.934355
1122.0,0.934357
1123.0,0.934359
1124.0,0.934361
1125.0,0.934363
1126.0,0.934365
1127.0,0.934367
1128.0,0.934369
1129.0,0.934371
1130.0,0.934373
1131.0,0.934375
1132.0,0.934377
1133.0,0.934379
1134.0,0.934381
1135.0,0.934383
1136.0,0.934385
1137.0,0.934387
1138.0,0.934389
1139.0,0.934391
1140.0,0.934393
1141.0,0.934395
1142.0,0.934397
1143.0,0.934399
1144.0,0.9344
1145.0,0.934402
1146.0,0.934404
1147.0,0.934406
1148.0,0.934408
1149.0,0.93441
1150.0,0.934412
1151.0,0.934414
1152.0,0.934416
1153.0,0.934417
1154.0,0.934419
1155.0,0.934421
1156.0,0.934423
1157.0,0.934425
1158.0,0.934427
1159.0,0.934428
1160.0,0.93443
1161.0,0.934432
1162.0,0.934434
1163.0,0.934436
1164.0,0.934438
1165.0,0.934439
1166.0,0.934441
1167.0,0.934443
1168.0,0.934445
1169.0,0.934447
1170.0,0.934448
1171.0,0.93445
1172.0,0.934452
1173.0,0.934454
1174.0,0.934455
1175.0,0.934457
1176.0,0.934459
1177.0,0.934461
1178.0,0.934462
1179.0,0.934464
1180.0,0.934466
1181.0,0.934468
1182.0,0.934469
1183.0,0.934471
1184.0,0.934473
1185.0,0.934475
1186.0,0.934476
1187.0,0.934478
1188.0,0.93448
1189.0,0.934481
1190.0,0.934483
1191.0,0.934485
1192.0,0.934486
1193.0,0.934488
1194.0,0.93449
1195.0,0.934492
1196.0,0.934493
1197.0,0.934495
1198.0,0.934497
1199.0,0.934498
1200.0,0.9345
1201.0,0.934501
1202.0,0.934503
1203.0,0.934505
1204.0,0.934506
1205.0,0.934508
1206.0,0.93451
1207.0,0.934511
1208.0,0.934513
1209.0,0.934515
1210.0,0.934516
1211.0,0.934518
1212.0,0.934519
1213.0,0.934521
1214.0,0.934523
1215.0,0.934524
1216.0,0.934526
1217.0,0.934527
1218.0,0.934529
1219.0,0.934531
1220.0,0.934532
1221.0,0.934534
1222.0,0.934535
1223.0,0.934537
1224.0,0.934538
1225.0,0.93454
1226.0,0.934542
1227.0,0.934543
1228.0,0.934545
1229.0,0.934546
1230.0,0.934548
1231.0,0.934549
1232.0,0.934551
1233.0,0.934552
1234.0,0.934554
1235.0,0.934555
1236.0,0.934557
1237.0,0.934558
1238.0,0.93456
1239.0,0.934561
1240.0,0.934563
1241.0,0.934564
1242.0,0.934566
1243.0,0.934567
1244.0,0.934569
1245.0,0.93457
1246.0,0.934572
1247.0,0.934573
1248.0,0.934575
1249.0,0.934576
1250.0,0.934578
1251.0,0.934579
1252.0,0.934581
1253.0,0.934582
1254.0,0.934584
1255.0,0.934585
1256.0,0.934586
1257.0,0.934588
1258.0,0.934589
1259.0,0.934591
1260.0,0.934592
1261.0,0.934594
1262.0,0.934595
1263.0,0.934597
1264.0,0.934598
1265.0,0.934599
1266.0,0.934601
1267.0,0.934602
1268.0,0.934604
1269.0,0.934605
1270.0,0.934606
1271.0,0.934608
1272.0,0.934609
1273.0,0.934611
1274.0,0.934612
1275.0,0.934613
1276.0,0.934615
1277.0,0.934616
1278.0,0.934618
1279.0,0.934619
1280.0,0.93462
1281.0,0.934622
1282.0,0.934623
1283.0,0.934624
1284.0,0.934626
1285.0,0.934627
1286.0,0.934628
1287.0,0.93463
1288.0,0.934631
1289.0,0.934632
1290.0,0.934634
1291.0,0.934635
1292.0,0.934636
1293.0,0.934638
1294.0,0.934639
1295.0,0.93464
1296.0,0.934642
1297.0,0.934643
1298.0,0.934644
1299.0,0.934646
1300.0,0.934647
1301.0,0.934648
1302.0,0.93465
1303.0,0.934651
1304.0,0.934652
1305.0,0.934653
1306.0,0.934655
1307.0,0.934656
1308.0,0.934657
1309.0,0.934659
1310.0,0.93466
1311.0,0.934661
1312.0,0.934662
1313.0,0.934664
1314.0,0.934665
1315.0,0.934666
1316.0,0.934668
1317.0,0.934669
1318.0,0.93467
1319.0,0.934671
1320.0,0.934673
1321.0,0.934674
1322.0,0.934675
1323.0,0.934676
1324.0,0.934678
1325.0,0.934679
1326.0,0.93468
1327.0,0.934681
1328.0,0.934682
1329.0,0.934684
1330.0,0.934685
1331.0,0.934686
1332.0,0.934687
1333.0,0.934689
1334.0,0.93469
1335.0,0.934691
1336.0,0.934692
1337.0,0.934693
1338.0,0.934695
1339.0,0.934696
1340.0,0.934697
1341.0,0.934698
1342.0,0.934699
1343.0,0.934701
1344.0,0.934702
1345.0,0.934703
1346.0,0.934704
1347.0,0.934705
1348.0,0.934706
1349.0,0.934708
1350.0,0.934709
1351.0,0.93471
1352.0,0.934711
1353.0,0.934712
1354.0,0.934713
1355.0,0.934715
1356.0,0.934716
1357.0,0.934717
1358.0,0.934718
1359.0,0.934719
1360.0,0.93472
1361.0,0.934722
1362.0,0.934723
1363.0,0.934724
1364.0,0.934725
1365.0,0.934726
1366.0,0.934727
1367.0,0.934728
1368.0,0.934729
1369.0,0.934731
1370.0,0.934732
1371.0,0.934733
1372.0,0.934734
1373.0,0.934735
1374.0,0.934736
1375.0,0.934737
1376.0,0.934738
1377.0,0.934739
1378.0,0.934741
1379.0,0.934742
1380.0,0.934743
1381.0,0.934744
1382.0,0.934745
1383.0,0.934746
1384.0,0.934747
1385.0,0.934748
1386.0,0.934749
1387.0,0.93475
1388.0,0.934751
1389.0,0.934753
1390.0,0.934754
1391.0,0.934755
1392.0,0.934756
1393.0,0.934757
1394.0,0.934758
1395.0,0.934759
1396.0,0.93476
1397.0,0.934761
1398.0,0.934762
1399.0,0.934763
1400.0,0.934764
1401.0,0.934765
1402.0,0.934766
1403.0,0.934767
1404.0,0.934768
1405.0,0.934769
1406.0,0.934771
1407.0,0.934772
1408.0,0.934773
1409.0,0.934774
1410.0,0.934775
1411.0,0.934776
1412.0,0.934777
1413.0,0.934778
1414.0,0.934779
1415.0,0.93478
1416.0,0.934781
1417.0,0.934782
1418.0,0.934783
1419.0,0.934784
1420.0,0.934785
1421.0,0.934786
1422.0,0.934787
1423.0,0.934788
1424.0,0.934789
1425.0,0.93479
1426.0,0.934791
1427.0,0.934792
1428.0,0.934793
1429.0,0.934794
1430.0,0.934795
1431.0,0.934796
1432.0,0.934797
1433.0,0.934798
1434.0,0.934799
1435.0,0.9348
1436.0,0.934801
1437.0,0.934802
1438.0,0.934803
1439.0,0.934804
1440.0,0.934805
1441.0,0.934806
1442.0,0.934806
1443.0,0.934807
1444.0,0.934808
1445.0,0.934809
1446.0,0.93481
1447.0,0.934811
1448.0,0.934812
1449.0,0.934813
1450.0,0.934814
1451.0,0.934815
1452.0,0.934816
1453.0,0.934817
1454.0,0.934818
1455.0,0.934819
1456.0,0.93482
1457.0,0.934821
1458.0,0.934822
1459.0,0.934823
1460.0,0.934824
1461.0,0.934824
1462.0,0.934825
1463.0,0.934826
1464.0,0.934827
1465.0,0.934828
1466.0,0.934829
1467.0,0.93483
1468.0,0.934831
1469.0,0.934832
1470.0,0.934833
1471.0,0.934834
1472.0,0.934835
1473.0,0.934835
1474.0,0.934836
1475.0,0.934837
1476.0,0.934838
1477.0,0.934839
1478.0,0.93484
1479.0,0.934841
1480.0,0.934842
1481.0,0.934843
1482.0,0.934843
1483.0,0.934844
1484.0,0.934845
1485.0,0.934846
1486.0,0.934847
1487.0,0.934848
1488.0,0.934849
1489.0,0.93485
1490.0,0.934851
1491.0,0.934851
1492.0,0.934852
1493.0,0.934853
1494.0,0.934854
1495.0,0.934855
1496.0,0.934856
1497.0,0.934857
1498.0,0.934857
1499.0,0.934858
1500.0,0.934859
1501.0,0.93486
1502.0,0.934861
1503.0,0.934862
1504.0,0.934863
1505.0,0.934863
1506.0,0.934864
1507.0,0.934865
1508.0,0.934866
1509.0,0.934867
1510.0,0.934868
1511.0,0.934868
1512.0,0.934869
1513.0,0.93487
1514.0,0.934871
1515.0,0.934872
1516.0,0.934873
1517.0,0.934873
1518.0,0.934874
1519.0,0.934875
1520.0,0.934876
1521.0,0.934877
1522.0,0.934878
1523.0,0.934878
1524.0,0.934879
1525.0,0.93488
1526.0,0.934881
1527.0,0.934882
1528.0,0.934883
1529.0,0.934883
1530.0,0.934884
1531.0,0.934885
1532.0,0.934886
1533.0,0.934887
1534.0,0.934887
1535.0,0.934888
1536.0,0.934889
1537.0,0.93489
1538.0,0.934891
1539.0,0.934891
1540.0,0.934892
1541.0,0.934893
1542.0,0.934894
1543.0,0.934894
1544.0,0.934895
1545.0,0.934896
1546.0,0.934897
1547.0,0.934898
1548.0,0.934898
1549.0,0.934899
1550.0,0.9349
1551.0,0.934901
1552.0,0.934902
1553.0,0.934902
1554.0,0.934903
1555.0,0.934904
1556.0,0.934905
1557.0,0.934905
1558.0,0.934906
1559.0,0.934907
1560.0,0.934908
1561.0,0.934908
1562.0,0.934909
1563.0,0.93491
1564.0,0.934911
1565.0,0.934911
1566.0,0.934912
1567.0,0.934913
1568.0,0.934914
1569.0,0.934914
1570.0,0.934915
1571.0,0.934916
1572.0,0.934917
1573.0,0.934917
1574.0,0.934918
1575.0,0.934919
1576.0,0.93492
1577.0,0.93492
1578.0,0.934921
1579.0,0.934922
1580.0,0.934923
1581.0,0.934923
1582.0,0.934924
1583.0,0.934925
1584.0,0.934926
1585.0,0.934926
1586.0,0.934927
1587.0,0.934928
1588.0,0.934928
1589.0,0.934929
1590.0,0.93493
1591.0,0.934931
1592.0,0.934931
1593.0,0.934932
1594.0,0.934933
1595.0,0.934933
1596.0,0.934934
1597.0,0.934935
1598.0,0.934936
1599.0,0.934936
1600.0,0.934937
1601.0,0.934938
1602.0,0.934938
1603.0,0.934939
1604.0,0.93494
1605.0,0.934941
1606.0,0.934941
1607.0,0.934942
1608.0,0.934943
1609.0,0.934943
1610.0,0.934944
1611.0,0.934945
1612.0,0.934945
1613.0,0.934946
1614.0,0.934947
1615.0,0.934948
1616.0,0.934948
1617.0,0.934949
1618.0,0.93495
1619.0,0.93495
1620.0,0.934951
1621.0,0.934952
1622.0,0.934952
1623.0,0.934953
1624.0,0.934954
1625.0,0.934954
1626.0,0.934955
1627.0,0.934956
1628.0,0.934956
1629.0,0.934957
1630.0,0.934958
1631.0,0.934958
1632.0,0.934959
1633.0,0.93496
1634.0,0.93496
1635.0,0.934961
1636.0,0.934962
1637.0,0.934962
1638.0,0.934963
1639.0,0.934964
1640.0,0.934964
1641.0,0.934965
1642.0,0.934966
1643.0,0.934966
1644.0,0.934967
1645.0,0.934968
1646.0,0.934968
1647.0,0.934969
1648.0,0.93497
1649.0,0.93497
1650.0,0.934971
1651.0,0.934971
1652.0,0.934972
1653.0,0.934973
1654.0,0.934973
1655.0,0.934974
1656.0,0.934975
1657.0,0.934975
1658.0,0.934976
1659.0,0.934977
1660.0,0.934977
1661.0,0.934978
1662.0,0.934979
1663.0,0.934979
1664.0,0.93498
1665.0,0.93498
1666.0,0.934981
1667.0,0.934982
1668.0,0.934982
1669.0,0.934983
1670.0,0.934984
1671.0,0.934984
1672.0,0.934985
1673.0,0.934985
1674.0,0.934986
1675.0,0.934987
1676.0,0.934987
1677.0,0.934988
1678.0,0.934988
1679.0,0.934989
1680.0,0.93499
1681.0,0.93499
1682.0,0.934991
1683.0,0.934992
1684.0,0.934992
1685.0,0.934993
1686.0,0.934993
1687.0,0.934994
1688.0,0.934995
1689.0,0.934995
1690.0,0.934996
1691.0,0.934996
1692.0,0.934997
1693.0,0.934998
1694.0,0.934998
1695.0,0.934999
1696.0,0.934999
1697.0,0.935
1698.0,0.935001
1699.0,0.935001
1700.0,0.935002
1701.0,0.935002
1702.0,0.935003
1703.0,0.935004
1704.0,0.935004
1705.0,0.935005
1706.0,0.935005
1707.0,0.935006
1708.0,0.935006
1709.0,0.935007
1710.0,0.935008
1711.0,0.935008
1712.0,0.935009
1713.0,0.935009
1714.0,0.93501
1715.0,0.93501
1716.0,0.935011
1717.0,0.935012
1718.0,0.935012
1719.0,0.935013
1720.0,0.935013
1721.0,0.935014
1722.0,0.935014
1723.0,0.935015
1724.0,0.935016
1725.0,0.935016
1726.0,0.935017
1727.0,0.935017
1728.0,0.935018
1729.0,0.935018
1730.0,0.935019
1731.0,0.93502
1732.0,0.93502
1733.0,0.935021
1734.0,0.935021
1735.0,0.935022
1736.0,0.935022
1737.0,0.935023
1738.0,0.935023
1739.0,0.935024
1740.0,0.935025
1741.0,0.935025
1742.0,0.935026
1743.0,0.935026
1744.0,0.935027
1745.0,0.935027
1746.0,0.935028
1747.0,0.935028
1748.0,0.935029
1749.0,0.93503
1750.0,0.93503
1751.0,0.935031
1752.0,0.935031
1753.0,0.935032
1754.0,0.935032
1755.0,0.935033
1756.0,0.935033
1757.0,0.935034
1758.0,0.935034
1759.0,0.935035
1760.0,0.935035
1761.0,0.935036
1762.0,0.935036
1763.0,0.935037
1764.0,0.935038
1765.0,0.935038
1766.0,0.935039
1767.0,0.935039
1768.0,0.93504
1769.0,0.93504
1770.0,0.935041
1771.0,0.935041
1772.0,0.935042
1773.0,0.935042
1774.0,0.935043
1775.0,0.935043
1776.0,0.935044
1777.0,0.935044
1778.0,0.935045
1779.0,0.935045
1780.0,0.935046
1781.0,0.935046
1782.0,0.935047
1783.0,0.935047
1784.0,0.935048
1785.0,0.935048
1786.0,0.935049
1787.0,0.935049
1788.0,0.93505
1789.0,0.935051
1790.0,0.935051
1791.0,0.935052
1792.0,0.935052
1793.0,0.935053
1794.0,0.935053
1795.0,0.935054
1796.0,0.935054
1797.0,0.935055
1798.0,0.935055
1799.0,0.935056
1800.0,0.935056
1801.0,0.935057
1802.0,0.935057
1803.0,0.935058
1804.0,0.935058
1805.0,0.935059
1806.0,0.935059
1807.0,0.93506
1808.0,0.93506
1809.0,0.935061
1810.0,0.935061
1811.0,0.935061
1812.0,0.935062
1813.0,0.935062
1814.0,0.935063
1815.0,0.935063
1816.0,0.935064
1817.0,0.935064
1818.0,0.935065
1819.0,0.935065
1820.0,0.935066
1821.0,0.935066
1822.0,0.935067
1823.0,0.935067
1824.0,0.935068
1825.0,0.935068
1826.0,0.935069
1827.0,0.935069
1828.0,0.93507
1829.0,0.93507
1830.0,0.935071
1831.0,0.935071
1832.0,0.935072
1833.0,0.935072
1834.0,0.935073
1835.0,0.935073
1836.0,0.935073
1837.0,0.935074
1838.0,0.935074
1839.0,0.935075
1840.0,0.935075
1841.0,0.935076
1842.0,0.935076
1843.0,0.935077
1844.0,0.935077
1845.0,0.935078
1846.0,0.935078
1847.0,0.935079
1848.0,0.935079
1849.0,0.93508
1850.0,0.93508
1851.0,0.93508
1852.0,0.935081
1853.0,0.935081
1854.0,0.935082
1855.0,0.935082
1856.0,0.935083
1857.0,0.935083
1858.0,0.935084
1859.0,0.935084
1860.0,0.935085
1861.0,0.935085
1862.0,0.935085
1863.0,0.935086
1864.0,0.935086
1865.0,0.935087
1866.0,0.935087
1867.0,0.935088
1868.0,0.935088
1869.0,0.935089
1870.0,0.935089
1871.0,0.935089
1872.0,0.93509
1873.0,0.93509
1874.0,0.935091
1875.0,0.935091
1876.0,0.935092
1877.0,0.935092
1878.0,0.935093
1879.0,0.935093
1880.0,0.935093
1881.0,0.935094
1882.0,0.935094
1883.0,0.935095
1884.0,0.935095
1885.0,0.935096
1886.0,0.935096
1887.0,0.935097
1888.0,0.935097
1889.0,0.935097
1890.0,0.935098
1891.0,0.935098
1892.0,0.935099
1893.0,0.935099
1894.0,0.9351
1895.0,0.9351
1896.0,0.9351
1897.0,0.935101
1898.0,0.935101
1899.0,0.935102
1900.0,0.935102
1901.0,0.935103
1902.0,0.935103
1903.0,0.935103
1904.0,0.935104
1905.0,0.935104
1906.0,0.935105
1907.0,0.935105
1908.0,0.935105
1909.0,0.935106
1910.0,0.935106
1911.0,0.935107
1912.0,0.935107
1913.0,0.935108
1914.0,0.935108
1915.0,0.935108
1916.0,0.935109
1917.0,0.935109
