Transmission at 0.00 degrees for unpolarized light
wavelength(nm) T
720.000000 4.948220e-03
721.000000 5.075700e-03
722.000000 5.204132e-03
723.000000 5.333790e-03
724.000000 5.464978e-03
725.000000 5.598033e-03
726.000000 5.733327e-03
727.000000 5.871268e-03
728.000000 6.012302e-03
729.000000 6.156919e-03
730.000000 6.304925e-03
731.000000 6.454443e-03
732.000000 6.605229e-03
733.000000 6.757161e-03
734.000000 6.910121e-03
735.000000 7.063990e-03
736.000000 7.218656e-03
737.000000 7.374009e-03
738.000000 7.529948e-03
739.000000 7.686377e-03
740.000000 7.843209e-03
741.000000 8.000368e-03
742.000000 8.157787e-03
743.000000 8.315409e-03
744.000000 8.473190e-03
745.000000 8.631100e-03
746.000000 8.789119e-03
747.000000 8.947243e-03
748.000000 9.105480e-03
749.000000 9.263851e-03
750.000000 9.422393e-03
751.000000 9.581156e-03
752.000000 9.740200e-03
753.000000 9.899602e-03
754.000000 0.010059
755.000000 0.010220
756.000000 0.010381
757.000000 0.010542
758.000000 0.010703
759.000000 0.010863
760.000000 0.011024
761.000000 0.011186
762.000000 0.011348
763.000000 0.011512
764.000000 0.011678
765.000000 0.011846
766.000000 0.012016
767.000000 0.012189
768.000000 0.012366
769.000000 0.012547
770.000000 0.012731
771.000000 0.012921
772.000000 0.013115
773.000000 0.013315
774.000000 0.013521
775.000000 0.013733
776.000000 0.013951
777.000000 0.014175
778.000000 0.014404
779.000000 0.014638
780.000000 0.014878
781.000000 0.015123
782.000000 0.015374
783.000000 0.015629
784.000000 0.015890
785.000000 0.016155
786.000000 0.016425
787.000000 0.016699
788.000000 0.016977
789.000000 0.017258
790.000000 0.017543
791.000000 0.017830
792.000000 0.018120
793.000000 0.018412
794.000000 0.018706
795.000000 0.019001
796.000000 0.019296
797.000000 0.019592
798.000000 0.019887
799.000000 0.020182
800.000000 0.020475
801.000000 0.020768
802.000000 0.021058
803.000000 0.021346
804.000000 0.021631
805.000000 0.021913
806.000000 0.022190
807.000000 0.022459
808.000000 0.022720
809.000000 0.022974
810.000000 0.023221
811.000000 0.023463
812.000000 0.023700
813.000000 0.023934
814.000000 0.024165
815.000000 0.024394
816.000000 0.024623
817.000000 0.024852
818.000000 0.025082
819.000000 0.025314
820.000000 0.025551
821.000000 0.025792
822.000000 0.026039
823.000000 0.026294
824.000000 0.026557
825.000000 0.026829
826.000000 0.027114
827.000000 0.027411
828.000000 0.027726
829.000000 0.028061
830.000000 0.028416
831.000000 0.028789
832.000000 0.029183
833.000000 0.029596
834.000000 0.030029
835.000000 0.030483
836.000000 0.030956
837.000000 0.031450
838.000000 0.031965
839.000000 0.032501
840.000000 0.033059
841.000000 0.033639
842.000000 0.034241
843.000000 0.034866
844.000000 0.035514
845.000000 0.036186
846.000000 0.036883
847.000000 0.037604
848.000000 0.038351
849.000000 0.039124
850.000000 0.039924
851.000000 0.040751
852.000000 0.041606
853.000000 0.042490
854.000000 0.043404
855.000000 0.044348
856.000000 0.045322
857.000000 0.046328
858.000000 0.047366
859.000000 0.048437
860.000000 0.049542
861.000000 0.050680
862.000000 0.051852
863.000000 0.053059
864.000000 0.054301
865.000000 0.055578
866.000000 0.056890
867.000000 0.058237
868.000000 0.059619
869.000000 0.061035
870.000000 0.062484
871.000000 0.063966
872.000000 0.065478
873.000000 0.067020
874.000000 0.068590
875.000000 0.070184
876.000000 0.071801
877.000000 0.073437
878.000000 0.075089
879.000000 0.076752
880.000000 0.078422
881.000000 0.080093
882.000000 0.081761
883.000000 0.083418
884.000000 0.085058
885.000000 0.086674
886.000000 0.088261
887.000000 0.089833
888.000000 0.091394
889.000000 0.092939
890.000000 0.094466
891.000000 0.095970
892.000000 0.097448
893.000000 0.098896
894.000000 0.100310
895.000000 0.101687
896.000000 0.103024
897.000000 0.104315
898.000000 0.105558
899.000000 0.106750
900.000000 0.107888
901.000000 0.108968
902.000000 0.109989
903.000000 0.110947
904.000000 0.111841
905.000000 0.112669
906.000000 0.113429
907.000000 0.114122
908.000000 0.114745
909.000000 0.115299
910.000000 0.115785
911.000000 0.116201
912.000000 0.116550
913.000000 0.116833
914.000000 0.117050
915.000000 0.117205
916.000000 0.117298
917.000000 0.117332
918.000000 0.117311
919.000000 0.117235
920.000000 0.117110
921.000000 0.116937
922.000000 0.116719
923.000000 0.116461
924.000000 0.116165
925.000000 0.115835
926.000000 0.115474
927.000000 0.115085
928.000000 0.114672
929.000000 0.114239
930.000000 0.113788
931.000000 0.113322
932.000000 0.112845
933.000000 0.112360
934.000000 0.111870
935.000000 0.111377
936.000000 0.110884
937.000000 0.110393
938.000000 0.109908
939.000000 0.109430
940.000000 0.108962
941.000000 0.108506
942.000000 0.108064
943.000000 0.107638
944.000000 0.107230
945.000000 0.106841
946.000000 0.106474
947.000000 0.106130
948.000000 0.105811
949.000000 0.105518
950.000000 0.105252
951.000000 0.105016
952.000000 0.104810
953.000000 0.104635
954.000000 0.104494
955.000000 0.104378
956.000000 0.104286
957.000000 0.104218
958.000000 0.104174
959.000000 0.104157
960.000000 0.104165
961.000000 0.104200
962.000000 0.104263
963.000000 0.104353
964.000000 0.104473
965.000000 0.104621
966.000000 0.104799
967.000000 0.105008
968.000000 0.105247
969.000000 0.105518
970.000000 0.105821
971.000000 0.106157
972.000000 0.106526
973.000000 0.106928
974.000000 0.107365
975.000000 0.107837
976.000000 0.108345
977.000000 0.108889
978.000000 0.109469
979.000000 0.110087
980.000000 0.110742
981.000000 0.111437
982.000000 0.112170
983.000000 0.112943
984.000000 0.113757
985.000000 0.114611
986.000000 0.115507
987.000000 0.116446
988.000000 0.117427
989.000000 0.118452
990.000000 0.119521
991.000000 0.120635
992.000000 0.121794
993.000000 0.122999
994.000000 0.124251
995.000000 0.125550
996.000000 0.126897
997.000000 0.128291
998.000000 0.129735
999.000000 0.131228
1000.000000 0.132770
1001.000000 0.134362
1002.000000 0.136004
1003.000000 0.137697
1004.000000 0.139441
1005.000000 0.141235
1006.000000 0.143081
1007.000000 0.144977
1008.000000 0.146924
1009.000000 0.148921
1010.000000 0.150968
1011.000000 0.153065
1012.000000 0.155211
1013.000000 0.157405
1014.000000 0.159646
1015.000000 0.161934
1016.000000 0.164266
1017.000000 0.166642
1018.000000 0.169059
1019.000000 0.171517
1020.000000 0.174012
1021.000000 0.176542
1022.000000 0.179106
1023.000000 0.181699
1024.000000 0.184319
1025.000000 0.186963
1026.000000 0.189627
1027.000000 0.192307
1028.000000 0.194999
1029.000000 0.197698
1030.000000 0.200401
1031.000000 0.203101
1032.000000 0.205795
1033.000000 0.208476
1034.000000 0.211142
1035.000000 0.213790
1036.000000 0.216416
1037.000000 0.219014
1038.000000 0.221581
1039.000000 0.224111
1040.000000 0.226600
1041.000000 0.229042
1042.000000 0.231432
1043.000000 0.233766
1044.000000 0.236038
1045.000000 0.238244
1046.000000 0.240380
1047.000000 0.242440
1048.000000 0.244421
1049.000000 0.246317
1050.000000 0.248126
1051.000000 0.249844
1052.000000 0.251466
1053.000000 0.252991
1054.000000 0.254415
1055.000000 0.255735
1056.000000 0.256950
1057.000000 0.258057
1058.000000 0.259056
1059.000000 0.259944
1060.000000 0.260722
1061.000000 0.261390
1062.000000 0.261946
1063.000000 0.262391
1064.000000 0.262727
1065.000000 0.262955
1066.000000 0.263075
1067.000000 0.263089
1068.000000 0.263000
1069.000000 0.262810
1070.000000 0.262522
1071.000000 0.262138
1072.000000 0.261662
1073.000000 0.261096
1074.000000 0.260444
1075.000000 0.259710
1076.000000 0.258898
1077.000000 0.258010
1078.000000 0.257052
1079.000000 0.256027
1080.000000 0.254939
1081.000000 0.253792
1082.000000 0.252589
1083.000000 0.251336
1084.000000 0.250036
1085.000000 0.248693
1086.000000 0.247310
1087.000000 0.245892
1088.000000 0.244442
1089.000000 0.242963
1090.000000 0.241460
1091.000000 0.239935
1092.000000 0.238392
1093.000000 0.236835
1094.000000 0.235265
1095.000000 0.233686
1096.000000 0.232101
1097.000000 0.230512
1098.000000 0.228922
1099.000000 0.227333
1100.000000 0.225748
1101.000000 0.224169
1102.000000 0.222597
1103.000000 0.221036
1104.000000 0.219486
1105.000000 0.217949
1106.000000 0.216427
1107.000000 0.214922
1108.000000 0.213434
1109.000000 0.211966
1110.000000 0.210518
1111.000000 0.209091
1112.000000 0.207687
1113.000000 0.206307
1114.000000 0.204952
1115.000000 0.203622
1116.000000 0.202318
1117.000000 0.201041
1118.000000 0.199792
1119.000000 0.198571
1120.000000 0.197380
1121.000000 0.196217
1122.000000 0.195085
1123.000000 0.193983
1124.000000 0.192912
1125.000000 0.191873
1126.000000 0.190865
1127.000000 0.189889
1128.000000 0.188944
1129.000000 0.188028
1130.000000 0.187143
1131.000000 0.186287
1132.000000 0.185462
1133.000000 0.184667
1134.000000 0.183904
1135.000000 0.183171
1136.000000 0.182469
1137.000000 0.181799
1138.000000 0.181160
1139.000000 0.180552
1140.000000 0.179976
1141.000000 0.179432
1142.000000 0.178919
1143.000000 0.178438
1144.000000 0.177989
1145.000000 0.177572
1146.000000 0.177187
1147.000000 0.176834
1148.000000 0.176513
1149.000000 0.176224
1150.000000 0.175968
1151.000000 0.175743
1152.000000 0.175551
1153.000000 0.175391
1154.000000 0.175263
1155.000000 0.175168
1156.000000 0.175105
1157.000000 0.175075
1158.000000 0.175077
1159.000000 0.175111
1160.000000 0.175179
1161.000000 0.175279
1162.000000 0.175412
1163.000000 0.175578
1164.000000 0.175778
1165.000000 0.176010
1166.000000 0.176276
1167.000000 0.176575
1168.000000 0.176908
1169.000000 0.177274
1170.000000 0.177675
1171.000000 0.178109
1172.000000 0.178578
1173.000000 0.179081
1174.000000 0.179619
1175.000000 0.180192
1176.000000 0.180799
1177.000000 0.181442
1178.000000 0.182121
1179.000000 0.182835
1180.000000 0.183585
1181.000000 0.184372
1182.000000 0.185195
1183.000000 0.186055
1184.000000 0.186952
1185.000000 0.187886
1186.000000 0.188858
1187.000000 0.189868
1188.000000 0.190917
1189.000000 0.192004
1190.000000 0.193130
1191.000000 0.194296
1192.000000 0.195501
1193.000000 0.196746
1194.000000 0.198032
1195.000000 0.199359
1196.000000 0.200727
1197.000000 0.202136
1198.000000 0.203587
1199.000000 0.205081
1200.000000 0.206617
1201.000000 0.208196
1202.000000 0.209819
1203.000000 0.211485
1204.000000 0.213196
1205.000000 0.214951
1206.000000 0.216751
1207.000000 0.218596
1208.000000 0.220487
1209.000000 0.222424
1210.000000 0.224408
1211.000000 0.226437
1212.000000 0.228514
1213.000000 0.230638
1214.000000 0.232809
1215.000000 0.235028
1216.000000 0.237295
1217.000000 0.239609
1218.000000 0.241973
1219.000000 0.244384
1220.000000 0.246844
1221.000000 0.249352
1222.000000 0.251910
1223.000000 0.254515
1224.000000 0.257169
1225.000000 0.259872
1226.000000 0.262623
1227.000000 0.265422
1228.000000 0.268268
1229.000000 0.271163
1230.000000 0.274104
1231.000000 0.277092
1232.000000 0.280126
1233.000000 0.283206
1234.000000 0.286331
1235.000000 0.289499
1236.000000 0.292712
1237.000000 0.295966
1238.000000 0.299262
1239.000000 0.302599
1240.000000 0.305975
1241.000000 0.309389
1242.000000 0.312843
1243.000000 0.316334
1244.000000 0.319862
1245.000000 0.323424
1246.000000 0.327019
1247.000000 0.330646
1248.000000 0.334301
1249.000000 0.337985
1250.000000 0.341693
1251.000000 0.345424
1252.000000 0.349177
1253.000000 0.352947
1254.000000 0.356732
1255.000000 0.360531
1256.000000 0.364339
1257.000000 0.368154
1258.000000 0.371973
1259.000000 0.375792
1260.000000 0.379608
1261.000000 0.383417
1262.000000 0.387217
1263.000000 0.391003
1264.000000 0.394771
1265.000000 0.398518
1266.000000 0.402239
1267.000000 0.405930
1268.000000 0.409588
1269.000000 0.413208
1270.000000 0.416785
1271.000000 0.420316
1272.000000 0.423796
1273.000000 0.427220
1274.000000 0.430585
1275.000000 0.433886
1276.000000 0.437119
1277.000000 0.440279
1278.000000 0.443361
1279.000000 0.446363
1280.000000 0.449280
1281.000000 0.452107
1282.000000 0.454841
1283.000000 0.457479
1284.000000 0.460016
1285.000000 0.462448
1286.000000 0.464774
1287.000000 0.466989
1288.000000 0.469091
1289.000000 0.471076
1290.000000 0.472943
1291.000000 0.474689
1292.000000 0.476312
1293.000000 0.477811
1294.000000 0.479183
1295.000000 0.480427
1296.000000 0.481543
1297.000000 0.482530
1298.000000 0.483386
1299.000000 0.484112
1300.000000 0.484709
1301.000000 0.485175
1302.000000 0.485512
1303.000000 0.485721
1304.000000 0.485802
1305.000000 0.485756
1306.000000 0.485587
1307.000000 0.485294
1308.000000 0.484880
1309.000000 0.484347
1310.000000 0.483698
1311.000000 0.482934
1312.000000 0.482060
1313.000000 0.481076
1314.000000 0.479988
1315.000000 0.478797
1316.000000 0.477506
1317.000000 0.476120
1318.000000 0.474642
1319.000000 0.473074
1320.000000 0.471422
1321.000000 0.469687
1322.000000 0.467874
1323.000000 0.465987
1324.000000 0.464029
1325.000000 0.462004
1326.000000 0.459915
1327.000000 0.457767
1328.000000 0.455562
1329.000000 0.453305
1330.000000 0.450999
1331.000000 0.448647
1332.000000 0.446253
1333.000000 0.443820
1334.000000 0.441352
1335.000000 0.438852
1336.000000 0.436323
1337.000000 0.433767
1338.000000 0.431189
1339.000000 0.428590
1340.000000 0.425975
1341.000000 0.423344
1342.000000 0.420702
1343.000000 0.418050
1344.000000 0.415391
1345.000000 0.412727
1346.000000 0.410061
1347.000000 0.407395
1348.000000 0.404730
1349.000000 0.402069
1350.000000 0.399413
1351.000000 0.396765
1352.000000 0.394125
1353.000000 0.391497
1354.000000 0.388880
1355.000000 0.386277
1356.000000 0.383688
1357.000000 0.381116
1358.000000 0.378561
1359.000000 0.376024
1360.000000 0.373507
1361.000000 0.371011
1362.000000 0.368535
1363.000000 0.366082
1364.000000 0.363652
1365.000000 0.361246
1366.000000 0.358864
1367.000000 0.356508
1368.000000 0.354176
1369.000000 0.351871
1370.000000 0.349593
1371.000000 0.347342
1372.000000 0.345118
1373.000000 0.342921
1374.000000 0.340753
1375.000000 0.338613
1376.000000 0.336502
1377.000000 0.334420
1378.000000 0.332366
1379.000000 0.330342
1380.000000 0.328346
1381.000000 0.326380
1382.000000 0.324444
1383.000000 0.322537
1384.000000 0.320659
1385.000000 0.318811
1386.000000 0.316992
1387.000000 0.315202
1388.000000 0.313442
1389.000000 0.311711
1390.000000 0.310009
1391.000000 0.308336
1392.000000 0.306693
1393.000000 0.305078
1394.000000 0.303492
1395.000000 0.301934
1396.000000 0.300405
1397.000000 0.298905
1398.000000 0.297432
1399.000000 0.295988
1400.000000 0.294571
1401.000000 0.293182
1402.000000 0.291820
1403.000000 0.290486
1404.000000 0.289179
1405.000000 0.287899
1406.000000 0.286646
1407.000000 0.285419
1408.000000 0.284218
1409.000000 0.283044
1410.000000 0.281895
1411.000000 0.280773
1412.000000 0.279676
1413.000000 0.278604
1414.000000 0.277558
1415.000000 0.276536
1416.000000 0.275540
1417.000000 0.274568
1418.000000 0.273621
1419.000000 0.272697
1420.000000 0.271798
1421.000000 0.270923
1422.000000 0.270072
1423.000000 0.269244
1424.000000 0.268439
1425.000000 0.267658
1426.000000 0.266899
1427.000000 0.266164
1428.000000 0.265451
1429.000000 0.264761
1430.000000 0.264094
1431.000000 0.263448
1432.000000 0.262825
1433.000000 0.262223
1434.000000 0.261644
1435.000000 0.261086
1436.000000 0.260550
1437.000000 0.260035
1438.000000 0.259542
1439.000000 0.259069
1440.000000 0.258618
1441.000000 0.258188
1442.000000 0.257778
1443.000000 0.257390
1444.000000 0.257022
1445.000000 0.256675
1446.000000 0.256348
1447.000000 0.256041
1448.000000 0.255755
1449.000000 0.255489
1450.000000 0.255244
1451.000000 0.255018
1452.000000 0.254812
1453.000000 0.254627
1454.000000 0.254461
1455.000000 0.254315
1456.000000 0.254189
1457.000000 0.254083
1458.000000 0.253997
1459.000000 0.253930
1460.000000 0.253883
1461.000000 0.253856
1462.000000 0.253848
1463.000000 0.253860
1464.000000 0.253892
1465.000000 0.253943
1466.000000 0.254014
1467.000000 0.254104
1468.000000 0.254214
1469.000000 0.254344
1470.000000 0.254493
1471.000000 0.254662
1472.000000 0.254851
1473.000000 0.255060
1474.000000 0.255288
1475.000000 0.255536
1476.000000 0.255805
1477.000000 0.256093
1478.000000 0.256401
1479.000000 0.256729
1480.000000 0.257077
1481.000000 0.257445
1482.000000 0.257834
1483.000000 0.258243
1484.000000 0.258672
1485.000000 0.259122
1486.000000 0.259593
1487.000000 0.260084
1488.000000 0.260596
1489.000000 0.261129
1490.000000 0.261683
1491.000000 0.262259
1492.000000 0.262855
1493.000000 0.263473
1494.000000 0.264113
1495.000000 0.264774
1496.000000 0.265457
1497.000000 0.266163
1498.000000 0.266890
1499.000000 0.267640
1500.000000 0.268412
1501.000000 0.269207
1502.000000 0.270025
1503.000000 0.270866
1504.000000 0.271730
1505.000000 0.272617
1506.000000 0.273529
1507.000000 0.274464
1508.000000 0.275423
1509.000000 0.276406
1510.000000 0.277414
1511.000000 0.278447
1512.000000 0.279505
1513.000000 0.280588
1514.000000 0.281697
1515.000000 0.282831
1516.000000 0.283992
1517.000000 0.285178
1518.000000 0.286391
1519.000000 0.287632
1520.000000 0.288899
1521.000000 0.290194
1522.000000 0.291516
1523.000000 0.292867
1524.000000 0.294246
1525.000000 0.295653
1526.000000 0.297090
1527.000000 0.298556
1528.000000 0.300052
1529.000000 0.301578
1530.000000 0.303134
1531.000000 0.304721
1532.000000 0.306339
1533.000000 0.307989
1534.000000 0.309671
1535.000000 0.311385
1536.000000 0.313131
1537.000000 0.314911
1538.000000 0.316724
1539.000000 0.318571
1540.000000 0.320452
1541.000000 0.322368
1542.000000 0.324320
1543.000000 0.326306
1544.000000 0.328329
1545.000000 0.330389
1546.000000 0.332485
1547.000000 0.334619
1548.000000 0.336790
1549.000000 0.339000
1550.000000 0.341249
1551.000000 0.343537
1552.000000 0.345864
1553.000000 0.348232
1554.000000 0.350640
1555.000000 0.353089
1556.000000 0.355580
1557.000000 0.358112
1558.000000 0.360687
1559.000000 0.363305
1560.000000 0.365966
1561.000000 0.368671
1562.000000 0.371420
1563.000000 0.374214
1564.000000 0.377054
1565.000000 0.379939
1566.000000 0.382870
1567.000000 0.385848
1568.000000 0.388873
1569.000000 0.391946
1570.000000 0.395067
1571.000000 0.398237
1572.000000 0.401456
1573.000000 0.404725
1574.000000 0.408043
1575.000000 0.411412
1576.000000 0.414832
1577.000000 0.418304
1578.000000 0.421827
1579.000000 0.425403
1580.000000 0.429031
1581.000000 0.432713
1582.000000 0.436448
1583.000000 0.440236
1584.000000 0.444080
1585.000000 0.447977
1586.000000 0.451930
1587.000000 0.455938
1588.000000 0.460002
1589.000000 0.464121
1590.000000 0.468297
1591.000000 0.472529
1592.000000 0.476817
1593.000000 0.481162
1594.000000 0.485564
1595.000000 0.490023
1596.000000 0.494539
1597.000000 0.499112
1598.000000 0.503743
1599.000000 0.508430
1600.000000 0.513174
1601.000000 0.517975
1602.000000 0.522833
1603.000000 0.527747
1604.000000 0.532717
1605.000000 0.537743
1606.000000 0.542824
1607.000000 0.547961
1608.000000 0.553152
1609.000000 0.558397
1610.000000 0.563695
1611.000000 0.569046
1612.000000 0.574448
1613.000000 0.579901
1614.000000 0.585405
1615.000000 0.590957
1616.000000 0.596557
1617.000000 0.602203
1618.000000 0.607895
1619.000000 0.613630
1620.000000 0.619408
1621.000000 0.625227
1622.000000 0.631084
1623.000000 0.636979
1624.000000 0.642909
1625.000000 0.648873
1626.000000 0.654867
1627.000000 0.660891
1628.000000 0.666941
1629.000000 0.673015
1630.000000 0.679110
1631.000000 0.685224
