Transmission at 0.00 degrees for unpolarized light
wavelength(nm) T
720.000000 0.932785
721.000000 0.932792
722.000000 0.932799
723.000000 0.932807
724.000000 0.932814
725.000000 0.932821
726.000000 0.932828
727.000000 0.932835
728.000000 0.932842
729.000000 0.932849
730.000000 0.932856
731.000000 0.932863
732.000000 0.932870
733.000000 0.932877
734.000000 0.932883
735.000000 0.932890
736.000000 0.932897
737.000000 0.932904
738.000000 0.932911
739.000000 0.932917
740.000000 0.932924
741.000000 0.932931
742.000000 0.932937
743.000000 0.932944
744.000000 0.932951
745.000000 0.932957
746.000000 0.932964
747.000000 0.932970
748.000000 0.932977
749.000000 0.932983
750.000000 0.932990
751.000000 0.932996
752.000000 0.933003
753.000000 0.933009
754.000000 0.933015
755.000000 0.933022
756.000000 0.933028
757.000000 0.933034
758.000000 0.933040
759.000000 0.933047
760.000000 0.933053
761.000000 0.933059
762.000000 0.933065
763.000000 0.933071
764.000000 0.933078
765.000000 0.933084
766.000000 0.933090
767.000000 0.933096
768.000000 0.933102
769.000000 0.933108
770.000000 0.933114
771.000000 0.933120
772.000000 0.933126
773.000000 0.933132
774.000000 0.933138
775.000000 0.933143
776.000000 0.933149
777.000000 0.933155
778.000000 0.933161
779.000000 0.933167
780.000000 0.933172
781.000000 0.933178
782.000000 0.933184
783.000000 0.933190
784.000000 0.933195
785.000000 0.933201
786.000000 0.933207
787.000000 0.933212
788.000000 0.933218
789.000000 0.933224
790.000000 0.933229
791.000000 0.933235
792.000000 0.933240
793.000000 0.933246
794.000000 0.933251
795.000000 0.933257
796.000000 0.933262
797.000000 0.933268
798.000000 0.933273
799.000000 0.933278
800.000000 0.933284
801.000000 0.933289
802.000000 0.933294
803.000000 0.933300
804.000000 0.933305
805.000000 0.933310
806.000000 0.933316
807.000000 0.933321
808.000000 0.933326
809.000000 0.933331
810.000000 0.933336
811.000000 0.933342
812.000000 0.933347
813.000000 0.933352
814.000000 0.933357
815.000000 0.933362
816.000000 0.933367
817.000000 0.933372
818.000000 0.933377
819.000000 0.933382
820.000000 0.933387
821.000000 0.933392
822.000000 0.933397
823.000000 0.933402
824.000000 0.933407
825.000000 0.933412
826.000000 0.933417
827.000000 0.933422
828.000000 0.933427
829.000000 0.933431
830.000000 0.933436
831.000000 0.933441
832.000000 0.933446
833.000000 0.933451
834.000000 0.933455
835.000000 0.933460
836.000000 0.933465
837.000000 0.933470
838.000000 0.933474
839.000000 0.933479
840.000000 0.933484
841.000000 0.933488
842.000000 0.933493
843.000000 0.933498
844.000000 0.933502
845.000000 0.933507
846.000000 0.933511
847.000000 0.933516
848.000000 0.933521
849.000000 0.933525
850.000000 0.933530
851.000000 0.933534
852.000000 0.933539
853.000000 0.933543
854.000000 0.933548
855.000000 0.933552
856.000000 0.933556
857.000000 0.933561
858.000000 0.933565
859.000000 0.933570
860.000000 0.933574
861.000000 0.933578
862.000000 0.933583
863.000000 0.933587
864.000000 0.933591
865.000000 0.933596
866.000000 0.933600
867.000000 0.933604
868.000000 0.933608
869.000000 0.933613
870.000000 0.933617
871.000000 0.933621
872.000000 0.933625
873.000000 0.933629
874.000000 0.933634
875.000000 0.933638
876.000000 0.933642
877.000000 0.933646
878.000000 0.933650
879.000000 0.933654
880.000000 0.933658
881.000000 0.933662
882.000000 0.933666
883.000000 0.933670
884.000000 0.933675
885.000000 0.933679
886.000000 0.933683
887.000000 0.933687
888.000000 0.933691
889.000000 0.933695
890.000000 0.933698
891.000000 0.933702
892.000000 0.933706
893.000000 0.933710
894.000000 0.933714
895.000000 0.933718
896.000000 0.933722
897.000000 0.933726
898.000000 0.933730
899.000000 0.933733
900.000000 0.933737
901.000000 0.933741
902.000000 0.933745
903.000000 0.933749
904.000000 0.933753
905.000000 0.933756
906.000000 0.933760
907.000000 0.933764
908.000000 0.933768
909.000000 0.933771
910.000000 0.933775
911.000000 0.933779
912.000000 0.933782
913.000000 0.933786
914.000000 0.933790
915.000000 0.933793
916.000000 0.933797
917.000000 0.933801
918.000000 0.933804
919.000000 0.933808
920.000000 0.933811
921.000000 0.933815
922.000000 0.933819
923.000000 0.933822
924.000000 0.933826
925.000000 0.933829
926.000000 0.933833
927.000000 0.933836
928.000000 0.933840
929.000000 0.933843
930.000000 0.933847
931.000000 0.933850
932.000000 0.933854
933.000000 0.933857
934.000000 0.933861
935.000000 0.933864
936.000000 0.933867
937.000000 0.933871
938.000000 0.933874
939.000000 0.933878
940.000000 0.933881
941.000000 0.933884
942.000000 0.933888
943.000000 0.933891
944.000000 0.933894
945.000000 0.933898
946.000000 0.933901
947.000000 0.933904
948.000000 0.933908
949.000000 0.933911
950.000000 0.933914
951.000000 0.933918
952.000000 0.933921
953.000000 0.933924
954.000000 0.933927
955.000000 0.933930
956.000000 0.933934
957.000000 0.933937
958.000000 0.933940
959.000000 0.933943
960.000000 0.933946
961.000000 0.933950
962.000000 0.933953
963.000000 0.933956
964.000000 0.933959
965.000000 0.933962
966.000000 0.933965
967.000000 0.933968
968.000000 0.933972
969.000000 0.933975
970.000000 0.933978
971.000000 0.933981
972.000000 0.933984
973.000000 0.933987
974.000000 0.933990
975.000000 0.933993
976.000000 0.933996
977.000000 0.933999
978.000000 0.934002
979.000000 0.934005
980.000000 0.934008
981.000000 0.934011
982.000000 0.934014
983.000000 0.934017
984.000000 0.934020
985.000000 0.934023
986.000000 0.934026
987.000000 0.934029
988.000000 0.934032
989.000000 0.934035
990.000000 0.934038
991.000000 0.934040
992.000000 0.934043
993.000000 0.934046
994.000000 0.934049
995.000000 0.934052
996.000000 0.934055
997.000000 0.934058
998.000000 0.934060
999.000000 0.934063
1000.000000 0.934066
1001.000000 0.934069
1002.000000 0.934072
1003.000000 0.934075
1004.000000 0.934077
1005.000000 0.934080
1006.000000 0.934083
1007.000000 0.934086
1008.000000 0.934088
1009.000000 0.934091
1010.000000 0.934094
1011.000000 0.934097
1012.000000 0.934099
1013.000000 0.934102
1014.000000 0.934105
1015.000000 0.934108
1016.000000 0.934110
1017.000000 0.934113
1018.000000 0.934116
1019.000000 0.934118
1020.000000 0.934121
1021.000000 0.934124
1022.000000 0.934126
1023.000000 0.934129
1024.000000 0.934132
1025.000000 0.934134
1026.000000 0.934137
1027.000000 0.934139
1028.000000 0.934142
1029.000000 0.934145
1030.000000 0.934147
1031.000000 0.934150
1032.000000 0.934152
1033.000000 0.934155
1034.000000 0.934157
1035.000000 0.934160
1036.000000 0.934163
1037.000000 0.934165
1038.000000 0.934168
1039.000000 0.934170
1040.000000 0.934173
1041.000000 0.934175
1042.000000 0.934178
1043.000000 0.934180
1044.000000 0.934183
1045.000000 0.934185
1046.000000 0.934188
1047.000000 0.934190
1048.000000 0.934193
1049.000000 0.934195
1050.000000 0.934197
1051.000000 0.934200
1052.000000 0.934202
1053.000000 0.934205
1054.000000 0.934207
1055.000000 0.934210
1056.000000 0.934212
1057.000000 0.934214
1058.000000 0.934217
1059.000000 0.934219
1060.000000 0.934222
1061.000000 0.934224
1062.000000 0.934226
1063.000000 0.934229
1064.000000 0.934231
1065.000000 0.934233
1066.000000 0.934236
1067.000000 0.934238
1068.000000 0.934240
1069.000000 0.934243
1070.000000 0.934245
1071.000000 0.934247
1072.000000 0.934250
1073.000000 0.934252
1074.000000 0.934254
1075.000000 0.934257
1076.000000 0.934259
1077.000000 0.934261
1078.000000 0.934263
1079.000000 0.934266
1080.000000 0.934268
1081.000000 0.934270
1082.000000 0.934272
1083.000000 0.934275
1084.000000 0.934277
1085.000000 0.934279
1086.000000 0.934281
1087.000000 0.934283
1088.000000 0.934286
1089.000000 0.934288
1090.000000 0.934290
1091.000000 0.934292
1092.000000 0.934294
1093.000000 0.934297
1094.000000 0.934299
1095.000000 0.934301
1096.000000 0.934303
1097.000000 0.934305
1098.000000 0.934307
1099.000000 0.934310
1100.000000 0.934312
1101.000000 0.934314
1102.000000 0.934316
1103.000000 0.934318
1104.000000 0.934320
1105.000000 0.934322
1106.000000 0.934324
1107.000000 0.934327
1108.000000 0.934329
1109.000000 0.934331
1110.000000 0.934333
1111.000000 0.934335
1112.000000 0.934337
1113.000000 0.934339
1114.000000 0.934341
1115.000000 0.934343
1116.000000 0.934345
1117.000000 0.934347
1118.000000 0.934349
1119.000000 0.934351
1120.000000 0.934353
1121.000000 0.934355
1122.000000 0.934357
1123.000000 0.934359
1124.000000 0.934361
1125.000000 0.934363
1126.000000 0.934365
1127.000000 0.934367
1128.000000 0.934369
1129.000000 0.934371
1130.000000 0.934373
1131.000000 0.934375
1132.000000 0.934377
1133.000000 0.934379
1134.000000 0.934381
1135.000000 0.934383
1136.000000 0.934385
1137.000000 0.934387
1138.000000 0.934389
1139.000000 0.934391
1140.000000 0.934393
1141.000000 0.934395
1142.000000 0.934397
1143.000000 0.934399
1144.000000 0.934400
1145.000000 0.934402
1146.000000 0.934404
1147.000000 0.934406
1148.000000 0.934408
1149.000000 0.934410
1150.000000 0.934412
1151.000000 0.934414
1152.000000 0.934416
1153.000000 0.934417
1154.000000 0.934419
1155.000000 0.934421
1156.000000 0.934423
1157.000000 0.934425
1158.000000 0.934427
1159.000000 0.934428
1160.000000 0.934430
1161.000000 0.934432
1162.000000 0.934434
1163.000000 0.934436
1164.000000 0.934438
1165.000000 0.934439
1166.000000 0.934441
1167.000000 0.934443
1168.000000 0.934445
1169.000000 0.934447
1170.000000 0.934448
1171.000000 0.934450
1172.000000 0.934452
1173.000000 0.934454
1174.000000 0.934455
1175.000000 0.934457
1176.000000 0.934459
1177.000000 0.934461
1178.000000 0.934462
1179.000000 0.934464
1180.000000 0.934466
1181.000000 0.934468
1182.000000 0.934469
1183.000000 0.934471
1184.000000 0.934473
1185.000000 0.934475
1186.000000 0.934476
1187.000000 0.934478
1188.000000 0.934480
1189.000000 0.934481
1190.000000 0.934483
1191.000000 0.934485
1192.000000 0.934486
1193.000000 0.934488
1194.000000 0.934490
1195.000000 0.934492
1196.000000 0.934493
1197.000000 0.934495
1198.000000 0.934497
1199.000000 0.934498
1200.000000 0.934500
1201.000000 0.934501
1202.000000 0.934503
1203.000000 0.934505
1204.000000 0.934506
1205.000000 0.934508
1206.000000 0.934510
1207.000000 0.934511
1208.000000 0.934513
1209.000000 0.934515
1210.000000 0.934516
1211.000000 0.934518
1212.000000 0.934519
1213.000000 0.934521
1214.000000 0.934523
1215.000000 0.934524
1216.000000 0.934526
1217.000000 0.934527
1218.000000 0.934529
1219.000000 0.934531
1220.000000 0.934532
1221.000000 0.934534
1222.000000 0.934535
1223.000000 0.934537
1224.000000 0.934538
1225.000000 0.934540
1226.000000 0.934542
1227.000000 0.934543
1228.000000 0.934545
1229.000000 0.934546
1230.000000 0.934548
1231.000000 0.934549
1232.000000 0.934551
1233.000000 0.934552
1234.000000 0.934554
1235.000000 0.934555
1236.000000 0.934557
1237.000000 0.934558
1238.000000 0.934560
1239.000000 0.934561
1240.000000 0.934563
1241.000000 0.934564
1242.000000 0.934566
1243.000000 0.934567
1244.000000 0.934569
1245.000000 0.934570
1246.000000 0.934572
1247.000000 0.934573
1248.000000 0.934575
1249.000000 0.934576
1250.000000 0.934578
1251.000000 0.934579
1252.000000 0.934581
1253.000000 0.934582
1254.000000 0.934584
1255.000000 0.934585
1256.000000 0.934586
1257.000000 0.934588
1258.000000 0.934589
1259.000000 0.934591
1260.000000 0.934592
1261.000000 0.934594
1262.000000 0.934595
1263.000000 0.934597
1264.000000 0.934598
1265.000000 0.934599
1266.000000 0.934601
1267.000000 0.934602
1268.000000 0.934604
1269.000000 0.934605
1270.000000 0.934606
1271.000000 0.934608
1272.000000 0.934609
1273.000000 0.934611
1274.000000 0.934612
1275.000000 0.934613
1276.000000 0.934615
1277.000000 0.934616
1278.000000 0.934618
1279.000000 0.934619
1280.000000 0.934620
1281.000000 0.934622
1282.000000 0.934623
1283.000000 0.934624
1284.000000 0.934626
1285.000000 0.934627
1286.000000 0.934628
1287.000000 0.934630
1288.000000 0.934631
1289.000000 0.934632
1290.000000 0.934634
1291.000000 0.934635
1292.000000 0.934636
1293.000000 0.934638
1294.000000 0.934639
1295.000000 0.934640
1296.000000 0.934642
1297.000000 0.934643
1298.000000 0.934644
1299.000000 0.934646
1300.000000 0.934647
1301.000000 0.934648
1302.000000 0.934650
1303.000000 0.934651
1304.000000 0.934652
1305.000000 0.934653
1306.000000 0.934655
1307.000000 0.934656
1308.000000 0.934657
1309.000000 0.934659
1310.000000 0.934660
1311.000000 0.934661
1312.000000 0.934662
1313.000000 0.934664
1314.000000 0.934665
1315.000000 0.934666
1316.000000 0.934668
1317.000000 0.934669
1318.000000 0.934670
1319.000000 0.934671
1320.000000 0.934673
1321.000000 0.934674
1322.000000 0.934675
1323.000000 0.934676
1324.000000 0.934678
1325.000000 0.934679
1326.000000 0.934680
1327.000000 0.934681
1328.000000 0.934682
1329.000000 0.934684
1330.000000 0.934685
1331.000000 0.934686
1332.000000 0.934687
1333.000000 0.934689
1334.000000 0.934690
1335.000000 0.934691
1336.000000 0.934692
1337.000000 0.934693
1338.000000 0.934695
1339.000000 0.934696
1340.000000 0.934697
1341.000000 0.934698
1342.000000 0.934699
1343.000000 0.934701
1344.000000 0.934702
1345.000000 0.934703
1346.000000 0.934704
1347.000000 0.934705
1348.000000 0.934706
1349.000000 0.934708
1350.000000 0.934709
1351.000000 0.934710
1352.000000 0.934711
1353.000000 0.934712
1354.000000 0.934713
1355.000000 0.934715
1356.000000 0.934716
1357.000000 0.934717
1358.000000 0.934718
1359.000000 0.934719
1360.000000 0.934720
1361.000000 0.934722
1362.000000 0.934723
1363.000000 0.934724
1364.000000 0.934725
1365.000000 0.934726
1366.000000 0.934727
1367.000000 0.934728
1368.000000 0.934729
1369.000000 0.934731
1370.000000 0.934732
1371.000000 0.934733
1372.000000 0.934734
1373.000000 0.934735
1374.000000 0.934736
1375.000000 0.934737
1376.000000 0.934738
1377.000000 0.934739
1378.000000 0.934741
1379.000000 0.934742
1380.000000 0.934743
1381.000000 0.934744
1382.000000 0.934745
1383.000000 0.934746
1384.000000 0.934747
1385.000000 0.934748
1386.000000 0.934749
1387.000000 0.934750
1388.000000 0.934751
1389.000000 0.934753
1390.000000 0.934754
1391.000000 0.934755
1392.000000 0.934756
1393.000000 0.934757
1394.000000 0.934758
1395.000000 0.934759
1396.000000 0.934760
1397.000000 0.934761
1398.000000 0.934762
1399.000000 0.934763
1400.000000 0.934764
1401.000000 0.934765
1402.000000 0.934766
1403.000000 0.934767
1404.000000 0.934768
1405.000000 0.934769
1406.000000 0.934771
1407.000000 0.934772
1408.000000 0.934773
1409.000000 0.934774
1410.000000 0.934775
1411.000000 0.934776
1412.000000 0.934777
1413.000000 0.934778
1414.000000 0.934779
1415.000000 0.934780
1416.000000 0.934781
1417.000000 0.934782
1418.000000 0.934783
1419.000000 0.934784
1420.000000 0.934785
1421.000000 0.934786
1422.000000 0.934787
1423.000000 0.934788
1424.000000 0.934789
1425.000000 0.934790
1426.000000 0.934791
1427.000000 0.934792
1428.000000 0.934793
1429.000000 0.934794
1430.000000 0.934795
1431.000000 0.934796
1432.000000 0.934797
1433.000000 0.934798
1434.000000 0.934799
1435.000000 0.934800
1436.000000 0.934801
1437.000000 0.934802
1438.000000 0.934803
1439.000000 0.934804
1440.000000 0.934805
1441.000000 0.934806
1442.000000 0.934806
1443.000000 0.934807
1444.000000 0.934808
1445.000000 0.934809
1446.000000 0.934810
1447.000000 0.934811
1448.000000 0.934812
1449.000000 0.934813
1450.000000 0.934814
1451.000000 0.934815
1452.000000 0.934816
1453.000000 0.934817
1454.000000 0.934818
1455.000000 0.934819
1456.000000 0.934820
1457.000000 0.934821
1458.000000 0.934822
1459.000000 0.934823
1460.000000 0.934824
1461.000000 0.934824
1462.000000 0.934825
1463.000000 0.934826
1464.000000 0.934827
1465.000000 0.934828
1466.000000 0.934829
1467.000000 0.934830
1468.000000 0.934831
1469.000000 0.934832
1470.000000 0.934833
1471.000000 0.934834
1472.000000 0.934835
1473.000000 0.934835
1474.000000 0.934836
1475.000000 0.934837
1476.000000 0.934838
1477.000000 0.934839
1478.000000 0.934840
1479.000000 0.934841
1480.000000 0.934842
1481.000000 0.934843
1482.000000 0.934843
1483.000000 0.934844
1484.000000 0.934845
1485.000000 0.934846
1486.000000 0.934847
1487.000000 0.934848
1488.000000 0.934849
1489.000000 0.934850
1490.000000 0.934851
1491.000000 0.934851
1492.000000 0.934852
1493.000000 0.934853
1494.000000 0.934854
1495.000000 0.934855
1496.000000 0.934856
1497.000000 0.934857
1498.000000 0.934857
1499.000000 0.934858
1500.000000 0.934859
1501.000000 0.934860
1502.000000 0.934861
1503.000000 0.934862
1504.000000 0.934863
1505.000000 0.934863
1506.000000 0.934864
1507.000000 0.934865
1508.000000 0.934866
1509.000000 0.934867
1510.000000 0.934868
1511.000000 0.934868
1512.000000 0.934869
1513.000000 0.934870
1514.000000 0.934871
1515.000000 0.934872
1516.000000 0.934873
1517.000000 0.934873
1518.000000 0.934874
1519.000000 0.934875
1520.000000 0.934876
1521.000000 0.934877
1522.000000 0.934878
1523.000000 0.934878
1524.000000 0.934879
1525.000000 0.934880
1526.000000 0.934881
1527.000000 0.934882
1528.000000 0.934883
1529.000000 0.934883
1530.000000 0.934884
1531.000000 0.934885
1532.000000 0.934886
1533.000000 0.934887
1534.000000 0.934887
1535.000000 0.934888
1536.000000 0.934889
1537.000000 0.934890
1538.000000 0.934891
1539.000000 0.934891
1540.000000 0.934892
1541.000000 0.934893
1542.000000 0.934894
1543.000000 0.934894
1544.000000 0.934895
1545.000000 0.934896
1546.000000 0.934897
1547.000000 0.934898
1548.000000 0.934898
1549.000000 0.934899
1550.000000 0.934900
1551.000000 0.934901
1552.000000 0.934902
1553.000000 0.934902
1554.000000 0.934903
1555.000000 0.934904
1556.000000 0.934905
1557.000000 0.934905
1558.000000 0.934906
1559.000000 0.934907
1560.000000 0.934908
1561.000000 0.934908
1562.000000 0.934909
1563.000000 0.934910
1564.000000 0.934911
1565.000000 0.934911
1566.000000 0.934912
1567.000000 0.934913
1568.000000 0.934914
1569.000000 0.934914
1570.000000 0.934915
1571.000000 0.934916
1572.000000 0.934917
1573.000000 0.934917
1574.000000 0.934918
1575.000000 0.934919
1576.000000 0.934920
1577.000000 0.934920
1578.000000 0.934921
1579.000000 0.934922
1580.000000 0.934923
1581.000000 0.934923
1582.000000 0.934924
1583.000000 0.934925
1584.000000 0.934926
1585.000000 0.934926
1586.000000 0.934927
1587.000000 0.934928
1588.000000 0.934928
1589.000000 0.934929
1590.000000 0.934930
1591.000000 0.934931
1592.000000 0.934931
1593.000000 0.934932
1594.000000 0.934933
1595.000000 0.934933
1596.000000 0.934934
1597.000000 0.934935
1598.000000 0.934936
1599.000000 0.934936
1600.000000 0.934937
1601.000000 0.934938
1602.000000 0.934938
1603.000000 0.934939
1604.000000 0.934940
1605.000000 0.934941
1606.000000 0.934941
1607.000000 0.934942
1608.000000 0.934943
1609.000000 0.934943
1610.000000 0.934944
1611.000000 0.934945
1612.000000 0.934945
1613.000000 0.934946
1614.000000 0.934947
1615.000000 0.934948
1616.000000 0.934948
1617.000000 0.934949
1618.000000 0.934950
1619.000000 0.934950
1620.000000 0.934951
1621.000000 0.934952
1622.000000 0.934952
1623.000000 0.934953
1624.000000 0.934954
1625.000000 0.934954
1626.000000 0.934955
1627.000000 0.934956
1628.000000 0.934956
1629.000000 0.934957
1630.000000 0.934958
1631.000000 0.934958
1632.000000 0.934959
1633.000000 0.934960
1634.000000 0.934960
1635.000000 0.934961
1636.000000 0.934962
1637.000000 0.934962
